//              Time(s)       Force[Z](Prismatic:19)(N) Force[Y](Prismatic:19)(N) Force[X](Prismatic:19)(N) Force(Prismatic:19)(N) Moment[Z](Prismatic:19)(N.mm) Moment[Y](Prismatic:19)(N.mm) Moment[X](Prismatic:19)(N.mm) Moment(Prismatic:19)(N.mm) 
               0.00000       1.66475      -0.69559       6932.73000    6932.73000   -36740.00000  -2505020.00000 -242.51600     2505290.00000 
               0.00556       117.79100    -0.69559       6932.73000    6933.73000   -36740.00000  -2609830.00000  362.37900     2610090.00000 
               0.01112       233.91700    -0.69559       6932.73000    6936.67000   -36740.00000  -2714610.00000  967.27600     2714860.00000 
               0.01667       350.04300    -0.69559       6932.73000    6941.56000   -36740.00000  -2819320.00000  1572.18000    2819560.00000 
               0.02223       466.16800    -0.69559       6932.73000    6948.38000   -36740.00000  -2923910.00000  2177.09000    2924150.00000 
               0.02779       582.30000    -0.69559       6932.73000    6957.14000   -36740.00000  -3028380.00000  2782.05000    3028600.00000 
               0.03335       698.40500    -0.69559       6932.73000    6967.82000   -36740.00000  -3132640.00000  3386.89000    3132860.00000 
               0.03890       814.60800    -0.69559       6932.73000    6980.42000   -36740.00000  -3236780.00000  3992.26000    3237000.00000 
               0.04446       930.44800    -0.69559       6932.73000    6994.89000   -36740.00000  -3340350.00000  4595.77000    3340560.00000 
               0.05002       1047.64000   -0.69559       6932.73000    7011.44000   -36740.00000  -3444860.00000  5206.33000    3445060.00000 
               0.05558       1159.78000   -0.69559       6932.73000    7029.07000   -36740.00000  -3544480.00000  5790.61000    3544680.00000 
               0.06114       1156.41000   -0.69559       6932.73000    7028.51000   -36740.00000  -3539510.00000  5773.25000    3539700.00000 
               0.06669       1157.31000   -0.69559       6932.73000    7028.66000   -36740.00000  -3538040.00000  5778.19000    3538240.00000 
               0.07225       1157.07000   -0.69559       6932.73000    7028.62000   -36740.00000  -3535190.00000  5777.19000    3535380.00000 
               0.07781       1157.13000   -0.69559       6932.73000    7028.63000   -36740.00000  -3532260.00000  5777.83000    3532460.00000 
               0.08337       1157.12000   -0.69559       6932.73000    7028.63000   -36740.00000  -3528910.00000  5778.07000    3529110.00000 
               0.08892       1157.12000   -0.69559       6932.73000    7028.63000   -36740.00000  -3525230.00000  5778.47000    3525420.00000 
               0.09448       1157.12000   -0.69559       6932.73000    7028.63000   -36740.00000  -3521190.00000  5778.86000    3521390.00000 
               0.10004       1157.12000   -0.69559       6932.73000    7028.63000   -36740.00000  -3516810.00000  5779.31000    3517000.00000 
               0.10560       1157.12000   -0.69559       6932.73000    7028.63000   -36740.00000  -3512070.00000  5779.78000    3512270.00000 
               0.11116       1157.12000   -0.69559       6932.73000    7028.63000   -36740.00000  -3506990.00000  5780.29000    3507180.00000 
               0.11671       1157.12000   -0.69559       6932.73000    7028.63000   -36740.00000  -3501550.00000  5780.84000    3501750.00000 
               0.12227       1157.12000   -0.69559       6932.73000    7028.63000   -36740.00000  -3495760.00000  5781.42000    3495960.00000 
               0.12783       1157.12000   -0.69559       6932.73000    7028.63000   -36740.00000  -3489630.00000  5782.03000    3489830.00000 
               0.13339       1157.12000   -0.69559       6932.73000    7028.63000   -36740.00000  -3483140.00000  5782.68000    3483340.00000 
               0.13895       1157.12000   -0.69559       6932.73000    7028.63000   -36740.00000  -3476310.00000  5783.37000    3476500.00000 
               0.14450       1157.12000   -0.69559       6932.73000    7028.63000   -36740.00000  -3469120.00000  5784.09000    3469320.00000 
               0.15006       1157.12000   -0.69559       6932.73000    7028.63000   -36740.00000  -3461580.00000  5784.85000    3461780.00000 
               0.15562       1157.12000   -0.69559       6932.73000    7028.63000   -36740.00000  -3453700.00000  5785.64000    3453900.00000 
               0.16118       1157.12000   -0.69559       6932.73000    7028.63000   -36740.00000  -3445460.00000  5786.46000    3445660.00000 
               0.16673       1157.12000   -0.69559       6932.73000    7028.63000   -36740.00000  -3436870.00000  5787.32000    3437070.00000 
               0.17229       1157.12000   -0.69559       6932.73000    7028.63000   -36740.00000  -3427940.00000  5788.22000    3428140.00000 
               0.17785       1157.12000   -0.69559       6932.73000    7028.63000   -36740.00000  -3418650.00000  5789.15000    3418850.00000 
               0.18341       1157.12000   -0.69559       6932.73000    7028.63000   -36740.00000  -3409010.00000  5790.13000    3409220.00000 
               0.18896       1157.11000   -0.69559       6932.73000    7028.63000   -36740.00000  -3399020.00000  5791.09000    3399220.00000 
               0.19452       1157.14000   -0.69559       6932.73000    7028.63000   -36740.00000  -3388700.00000  5792.26000    3388910.00000 
               0.20008       1157.05000   -0.69559       6932.73000    7028.62000   -36740.00000  -3377930.00000  5792.85000    3378140.00000 
               0.20564       1157.40000   -0.69559       6932.73000    7028.67000   -36740.00000  -3367210.00000  5795.78000    3367420.00000 
               0.21120       1156.09000   -0.69559       6932.73000    7028.46000   -36740.00000  -3354640.00000  5790.11000    3354850.00000 
               0.21675       1160.97000   -0.69559       6932.73000    7029.26000   -36740.00000  -3347310.00000  5816.71000    3347520.00000 
               0.22231       1141.82000   -0.69559       6932.73000    7026.13000   -36740.00000  -3317940.00000  5718.20000    3318150.00000 
               0.22787       1015.64000   -0.69559       6932.73000    7006.73000   -36740.00000  -3191620.00000  5062.18000    3191840.00000 
               0.23343       902.21100    -0.69559       6932.73000    6991.19000   -36740.00000  -3076500.00000  4472.60000    3076720.00000 
               0.23899       785.36300    -0.69559       6932.73000    6977.07000   -36740.00000  -2958020.00000  3865.25000    2958250.00000 
               0.24454       669.43100    -0.69559       6932.73000    6964.97000   -36740.00000  -2840130.00000  3262.69000    2840370.00000 
               0.25010       553.25300    -0.69559       6932.73000    6954.77000   -36740.00000  -2721820.00000  2658.88000    2722070.00000 
               0.25566       437.14100    -0.69559       6932.73000    6946.50000   -36740.00000  -2603400.00000  2055.42000    2603660.00000 
               0.26122       321.01100    -0.69559       6932.73000    6940.16000   -36740.00000  -2484830.00000  1451.89000    2485100.00000 
               0.26677       204.88600    -0.69559       6932.73000    6935.75000   -36740.00000  -2366170.00000  848.38600     2366460.00000 
               0.27233       88.75930     -0.69559       6932.73000    6933.30000   -36740.00000  -2247450.00000  244.88500     2247750.00000 
               0.27789      -27.36670     -0.69559       6932.73000    6932.78000   -36740.00000  -2128700.00000 -358.61026     2129020.00000 
               0.28345      -143.49300    -0.69559       6932.73000    6934.21000   -36740.00000  -2009960.00000 -962.10800     2010290.00000 
               0.28901      -259.61800    -0.69559       6932.73000    6937.59000   -36740.00000  -1891260.00000 -1565.61000    1891620.00000 
               0.29456      -375.74700    -0.69559       6932.73000    6942.90000   -36740.00000  -1772640.00000 -2169.13000    1773030.00000 
               0.30012      -491.86300    -0.69559       6932.73000    6950.15000   -36740.00000  -1654150.00000 -2772.60000    1654560.00000 
               0.30568      -608.02800    -0.69559       6932.73000    6959.34000   -36740.00000  -1535760.00000 -3376.33000    1536200.00000 
               0.31124      -724.00900    -0.69559       6932.73000    6970.43000   -36740.00000  -1417720.00000 -3979.13000    1418200.00000 
               0.31679      -840.67600    -0.69559       6932.73000    6983.51000   -36740.00000  -1299290.00000 -4585.53000    1299810.00000 
               0.32235      -954.78300    -0.69559       6932.73000    6998.17000   -36740.00000  -1183410.00000 -5178.61000    1184000.00000 
               0.32791      -1078.45000   -0.69559       6932.73000    7016.11000   -36740.00000  -1059210.00000 -5821.51000    1059860.00000 
               0.33347      -1163.31000   -0.69559       6932.73000    7029.65000   -36740.00000  -970352.00000 -6262.30000    971067.00000 
               0.33903      -1151.24000   -0.69559       6932.73000    7027.66000   -36740.00000  -969329.00000 -6198.26000    970045.00000 
               0.34458      -1154.47000   -0.69559       6932.73000    7028.19000   -36740.00000  -954848.00000 -6213.94000    955575.00000 
               0.35014      -1153.61000   -0.69559       6932.73000    7028.05000   -36740.00000  -944417.00000 -6208.30000    945152.00000 
               0.35570      -1153.84000   -0.69559       6932.73000    7028.09000   -36740.00000  -933345.00000 -6208.42000    934088.00000 
               0.36126      -1153.78000   -0.69559       6932.73000    7028.08000   -36740.00000  -922888.00000 -6207.04000    923640.00000 
               0.36682      -1153.79000   -0.69559       6932.73000    7028.08000   -36740.00000  -912711.00000 -6206.11000    913471.00000 
               0.37237      -1153.79000   -0.69559       6932.73000    7028.08000   -36740.00000  -902902.00000 -6205.10000    903671.00000 
               0.37793      -1153.79000   -0.69559       6932.73000    7028.08000   -36740.00000  -893439.00000 -6204.16000    894216.00000 
               0.38349      -1153.79000   -0.69559       6932.73000    7028.08000   -36740.00000  -884327.00000 -6203.24000    885112.00000 
               0.38905      -1153.79000   -0.69559       6932.73000    7028.08000   -36740.00000  -875565.00000 -6202.36000    876358.00000 
               0.39460      -1153.79000   -0.69559       6932.73000    7028.08000   -36740.00000  -867153.00000 -6201.52000    867953.00000 
               0.40016      -1153.79000   -0.69559       6932.73000    7028.08000   -36740.00000  -859092.00000 -6200.71000    859899.00000 
               0.40572      -1153.79000   -0.69559       6932.73000    7028.08000   -36740.00000  -851380.00000 -6199.94000    852195.00000 
               0.41128      -1153.79000   -0.69559       6932.73000    7028.08000   -36740.00000  -844018.00000 -6199.20000    844841.00000 
               0.41684      -1153.79000   -0.69559       6932.73000    7028.08000   -36740.00000  -837007.00000 -6198.49000    837836.00000 
               0.42239      -1153.79000   -0.69559       6932.73000    7028.08000   -36740.00000  -830346.00000 -6197.83000    831181.00000 
               0.42795      -1153.79000   -0.69559       6932.73000    7028.08000   -36740.00000  -824035.00000 -6197.19000    824877.00000 
               0.43351      -1153.79000   -0.69559       6932.73000    7028.08000   -36740.00000  -818074.00000 -6196.59000    818922.00000 
               0.43907      -1153.79000   -0.69559       6932.73000    7028.08000   -36740.00000  -812463.00000 -6196.03000    813317.00000 
               0.44462      -1153.79000   -0.69559       6932.73000    7028.08000   -36740.00000  -807202.00000 -6195.50000    808062.00000 
               0.45018      -1153.79000   -0.69559       6932.73000    7028.08000   -36740.00000  -802292.00000 -6195.01000    803156.00000 
               0.45574      -1153.79000   -0.69559       6932.73000    7028.08000   -36740.00000  -797732.00000 -6194.55000    798602.00000 
               0.46130      -1153.79000   -0.69559       6932.73000    7028.08000   -36740.00000  -793518.00000 -6194.15000    794393.00000 
               0.46686      -1153.78000   -0.69559       6932.73000    7028.08000   -36740.00000  -789672.00000 -6193.68000    790550.00000 
               0.47241      -1153.83000   -0.69559       6932.73000    7028.09000   -36740.00000  -786111.00000 -6193.62000    786993.00000 
               0.47797      -1153.62000   -0.69559       6932.73000    7028.06000   -36740.00000  -783140.00000 -6192.21000    784026.00000 
               0.48353      -1154.41000   -0.69559       6932.73000    7028.18000   -36740.00000  -779625.00000 -6196.00000    780515.00000 
               0.48909      -1151.49000   -0.69559       6932.73000    7027.71000   -36740.00000  -779798.00000 -6180.56000    780687.00000 
               0.49464      -1162.37000   -0.69559       6932.73000    7029.50000   -36740.00000  -767864.00000 -6237.05000    768767.00000 
               0.50020      -1111.17000   -0.69559       6932.73000    7021.21000   -36740.00000  -812321.00000 -5970.15000    813174.00000 
               0.50576      -982.82400    -0.69559       6932.73000    7002.05000   -36740.00000  -926741.00000 -5301.47000    927484.00000 
               0.51132      -869.97500    -0.69559       6932.73000    6987.10000   -36740.00000  -1027470.00000 -4713.52000    1028140.00000 
               0.51688      -752.96300    -0.69559       6932.73000    6973.50000   -36740.00000  -1132230.00000 -4103.93000    1132830.00000 
               0.52243      -637.10400    -0.69559       6932.73000    6961.94000   -36740.00000  -1236170.00000 -3500.36000    1236720.00000 
               0.52799      -520.79400    -0.69559       6932.73000    6952.26000   -36740.00000  -1340710.00000 -2894.47000    1341210.00000 
               0.53355      -405.13400    -0.69559       6932.73000    6944.55000   -36740.00000  -1444820.00000 -2291.97000    1445290.00000 
               0.53911      -287.32800    -0.69559       6932.73000    6938.68000   -36740.00000  -1550990.00000 -1678.31000    1551430.00000 
               0.54466      -177.45600    -0.69559       6932.73000    6935.00000   -36740.00000  -1650090.00000 -1105.99000    1650500.00000 
               0.55022      -37.99300     -0.69559       6932.73000    6932.83000   -36740.00000  -1775960.00000 -379.53200     1776340.00000 
               0.55578      -37.99300     -0.69559       6932.73000    6932.83000   -36740.00000  -1775960.00000 -379.53200     1776340.00000 
               0.56134      -177.45600    -0.69559       6932.73000    6935.00000   -36740.00000  -1650090.00000 -1105.99000    1650500.00000 
               0.56690      -287.32800    -0.69559       6932.73000    6938.68000   -36740.00000  -1550990.00000 -1678.31000    1551430.00000 
               0.57245      -405.13400    -0.69559       6932.73000    6944.55000   -36740.00000  -1444820.00000 -2291.97000    1445290.00000 
               0.57801      -520.79400    -0.69559       6932.73000    6952.26000   -36740.00000  -1340710.00000 -2894.47000    1341210.00000 
               0.58357      -637.10400    -0.69559       6932.73000    6961.94000   -36740.00000  -1236170.00000 -3500.36000    1236720.00000 
               0.58913      -752.96300    -0.69559       6932.73000    6973.50000   -36740.00000  -1132230.00000 -4103.93000    1132830.00000 
               0.59469      -869.97500    -0.69559       6932.73000    6987.10000   -36740.00000  -1027470.00000 -4713.52000    1028140.00000 
               0.60024      -982.82400    -0.69559       6932.73000    7002.05000   -36740.00000  -926741.00000 -5301.47000    927484.00000 
               0.60580      -1111.17000   -0.69559       6932.73000    7021.21000   -36740.00000  -812321.00000 -5970.15000    813174.00000 
               0.61136      -1162.37000   -0.69559       6932.73000    7029.50000   -36740.00000  -767864.00000 -6237.05000    768767.00000 
               0.61692      -1151.49000   -0.69559       6932.73000    7027.71000   -36740.00000  -779798.00000 -6180.56000    780687.00000 
               0.62247      -1154.41000   -0.69559       6932.73000    7028.18000   -36740.00000  -779625.00000 -6196.00000    780515.00000 
               0.62803      -1153.62000   -0.69559       6932.73000    7028.06000   -36740.00000  -783140.00000 -6192.21000    784026.00000 
               0.63359      -1153.83000   -0.69559       6932.73000    7028.09000   -36740.00000  -786111.00000 -6193.62000    786993.00000 
               0.63915      -1153.78000   -0.69559       6932.73000    7028.08000   -36740.00000  -789672.00000 -6193.68000    790550.00000 
               0.64470      -1153.79000   -0.69559       6932.73000    7028.08000   -36740.00000  -793518.00000 -6194.15000    794393.00000 
               0.65026      -1153.79000   -0.69559       6932.73000    7028.08000   -36740.00000  -797732.00000 -6194.55000    798602.00000 
               0.65582      -1153.79000   -0.69559       6932.73000    7028.08000   -36740.00000  -802292.00000 -6195.01000    803156.00000 
               0.66138      -1153.79000   -0.69559       6932.73000    7028.08000   -36740.00000  -807202.00000 -6195.50000    808062.00000 
               0.66694      -1153.79000   -0.69559       6932.73000    7028.08000   -36740.00000  -812463.00000 -6196.03000    813317.00000 
               0.67249      -1153.79000   -0.69559       6932.73000    7028.08000   -36740.00000  -818074.00000 -6196.59000    818922.00000 
               0.67805      -1153.79000   -0.69559       6932.73000    7028.08000   -36740.00000  -824035.00000 -6197.19000    824877.00000 
               0.68361      -1153.79000   -0.69559       6932.73000    7028.08000   -36740.00000  -830346.00000 -6197.83000    831181.00000 
               0.68917      -1153.79000   -0.69559       6932.73000    7028.08000   -36740.00000  -837007.00000 -6198.49000    837836.00000 
               0.69473      -1153.79000   -0.69559       6932.73000    7028.08000   -36740.00000  -844018.00000 -6199.20000    844841.00000 
               0.70028      -1153.79000   -0.69559       6932.73000    7028.08000   -36740.00000  -851380.00000 -6199.94000    852195.00000 
               0.70584      -1153.79000   -0.69559       6932.73000    7028.08000   -36740.00000  -859092.00000 -6200.71000    859899.00000 
               0.71140      -1153.79000   -0.69559       6932.73000    7028.08000   -36740.00000  -867153.00000 -6201.52000    867953.00000 
               0.71696      -1153.79000   -0.69559       6932.73000    7028.08000   -36740.00000  -875565.00000 -6202.36000    876358.00000 
               0.72251      -1153.79000   -0.69559       6932.73000    7028.08000   -36740.00000  -884327.00000 -6203.24000    885112.00000 
               0.72807      -1153.79000   -0.69559       6932.73000    7028.08000   -36740.00000  -893439.00000 -6204.16000    894216.00000 
               0.73363      -1153.79000   -0.69559       6932.73000    7028.08000   -36740.00000  -902902.00000 -6205.10000    903671.00000 
               0.73919      -1153.79000   -0.69559       6932.73000    7028.08000   -36740.00000  -912711.00000 -6206.11000    913471.00000 
               0.74474      -1153.78000   -0.69559       6932.73000    7028.08000   -36740.00000  -922888.00000 -6207.04000    923640.00000 
               0.75030      -1153.84000   -0.69559       6932.73000    7028.09000   -36740.00000  -933345.00000 -6208.42000    934088.00000 
               0.75586      -1153.61000   -0.69559       6932.73000    7028.05000   -36740.00000  -944417.00000 -6208.30000    945152.00000 
               0.76142      -1154.47000   -0.69559       6932.73000    7028.19000   -36740.00000  -954848.00000 -6213.94000    955575.00000 
               0.76698      -1151.24000   -0.69559       6932.73000    7027.66000   -36740.00000  -969329.00000 -6198.26000    970045.00000 
