Time(s) Force[Z](Spherical:10)-BalanceoCaso3.iaa(N) Force[Y](Spherical:10)-BalanceoCaso3.iaa(N) Force[X](Spherical:10)-BalanceoCaso3.iaa(N) Force(Spherical:10)-BalanceoCaso3.iaa(N) Moment[Z](Spherical:10)-BalanceoCaso3.iaa(N.mm) Moment[Y](Spherical:10)-BalanceoCaso3.iaa(N.mm) Moment[X](Spherical:10)-BalanceoCaso3.iaa(N.mm) Moment(Spherical:10)-BalanceoCaso3.iaa(N.mm) 
0.00000 -0.07194 -4554.15000 0.00183 4554.15000 0.00834 0.00049 0.01771 0.01958 
0.00910 -0.07504 -4765.45000 0.00180 4765.45000 -0.00000 -0.00000 0.00000 0.00000 
0.01820 -0.07812 -4976.53000 0.00178 4976.53000 -0.00000 -0.00000 0.00000 0.00000 
0.02731 -0.08119 -5187.15000 0.00175 5187.15000 -0.00000 -0.00000 0.00000 0.00000 
0.03641 -0.08424 -5396.89000 0.00173 5396.89000 0.00000 -0.00000 0.00000 0.00000 
0.04551 -0.08726 -5605.59000 0.00172 5605.59000 0.00000 -0.00000 0.00000 0.00000 
0.05461 -0.09023 -5811.94000 0.00171 5811.94000 0.00000 -0.00000 0.00000 0.00000 
0.06371 -0.09317 -6018.51000 0.00172 6018.51000 0.00000 -0.00000 0.00000 0.00000 
0.07282 -0.09591 -6213.07000 0.00175 6213.07000 0.00000 -0.00000 0.00000 0.00000 
0.08192 -0.09551 -6195.58000 0.00182 6195.58000 0.00000 -0.00000 0.00000 0.00000 
0.09102 -0.09515 -6183.36000 0.00190 6183.36000 0.00000 -0.00000 0.00000 0.00000 
0.10012 -0.09470 -6166.61000 0.00199 6166.61000 0.00000 -0.00000 0.00000 0.00000 
0.10922 -0.09418 -6148.00000 0.00210 6148.00000 0.00000 -0.00000 0.00000 0.00000 
0.11832 -0.09358 -6126.85000 0.00222 6126.85000 0.00000 -0.00000 0.00000 0.00000 
0.12743 -0.09292 -6103.39000 0.00235 6103.39000 0.00000 -0.00000 0.00000 0.00000 
0.13653 -0.09217 -6077.60000 0.00250 6077.60000 0.00000 -0.00000 0.00000 0.00000 
0.14563 -0.09136 -6049.55000 0.00266 6049.55000 -0.00000 -0.00000 0.00000 0.00000 
0.15473 -0.09046 -6019.27000 0.00284 6019.27000 0.00000 -0.00000 -0.00000 0.00001 
0.16383 -0.08949 -5986.82000 0.00303 5986.82000 -0.00000 -0.00000 0.00000 0.00000 
0.17294 -0.08843 -5952.24000 0.00323 5952.24000 0.00000 -0.00000 -0.00000 0.00000 
0.18204 -0.08730 -5915.60000 0.00345 5915.60000 0.00001 -0.00000 -0.00000 0.00001 
0.19114 -0.08608 -5876.95000 0.00368 5876.95000 -0.00000 -0.00000 -0.00000 0.00000 
0.20024 -0.08476 -5836.34000 0.00393 5836.34000 -0.00000 -0.00000 -0.00000 0.00000 
0.20934 -0.08336 -5793.84000 0.00419 5793.84000 -0.00000 -0.00000 -0.00000 0.00000 
0.21845 -0.08187 -5749.51000 0.00447 5749.51000 -0.00000 -0.00000 -0.00000 0.00000 
0.22755 -0.08028 -5703.42000 0.00476 5703.42000 0.00000 -0.00000 -0.00000 0.00000 
0.23665 -0.07859 -5655.61000 0.00506 5655.61000 -0.00000 -0.00000 -0.00000 0.00000 
0.24575 -0.07680 -5606.23000 0.00538 5606.23000 -0.00000 -0.00000 -0.00000 0.00000 
0.25485 -0.07489 -5555.08000 0.00572 5555.08000 -0.00000 -0.00000 -0.00000 0.00000 
0.26395 -0.07289 -5503.13000 0.00607 5503.13000 -0.00000 -0.00000 -0.00000 0.00000 
0.27306 -0.07073 -5447.16000 0.00643 5447.16000 -0.00000 -0.00000 -0.00000 0.00000 
0.28216 -0.06858 -5399.38000 0.00681 5399.38000 -0.00000 -0.00000 -0.00000 0.00000 
0.29126 -0.06579 -5313.61000 0.00717 5313.61000 -0.00000 -0.00000 -0.00000 0.00000 
0.30036 -0.06065 -5068.22000 0.00733 5068.22000 -0.00000 -0.00000 -0.00000 0.00000 
0.30946 -0.05580 -4847.97000 0.00746 4847.97000 -0.00000 -0.00000 -0.00000 0.00000 
0.31857 -0.05092 -4628.88000 0.00753 4628.88000 -0.00000 -0.00000 -0.00000 0.00000 
0.32767 -0.04611 -4417.91000 0.00754 4417.91000 -0.00000 -0.00000 -0.00000 0.00000 
0.33677 -0.04136 -4213.73000 0.00749 4213.73000 -0.00000 -0.00000 0.00000 0.00000 
0.34587 -0.03669 -4017.11000 0.00737 4017.11000 -0.00000 0.00000 0.00000 0.00000 
0.35497 -0.03211 -3828.17000 0.00718 3828.17000 0.00000 0.00000 0.00000 0.00000 
0.36408 -0.02763 -3647.13000 0.00692 3647.13000 -0.00000 0.00000 0.00000 0.00000 
0.37318 -0.02328 -3474.07000 0.00659 3474.07000 -0.00000 0.00000 0.00000 0.00000 
0.38228 -0.01904 -3309.06000 0.00619 3309.06000 -0.00000 0.00000 0.00000 0.00000 
0.39138 -0.01496 -3151.97000 0.00572 3151.97000 0.00000 0.00000 0.00000 0.00000 
0.40048 -0.01102 -3003.00000 0.00519 3003.00000 -0.00000 0.00000 0.00000 0.00000 
0.40959 -0.00725 -2860.91000 0.00459 2860.91000 -0.00000 0.00000 0.00000 0.00000 
0.41869 -0.00368 -2729.37000 0.00393 2729.37000 -0.00000 0.00000 0.00000 0.00000 
0.42779 -0.00016 -2593.60000 0.00319 2593.60000 -0.00000 0.00000 0.00000 0.00000 
0.43689 0.00261 -2509.96000 0.00254 2509.96000 -0.00000 0.00000 0.00000 0.00000 
0.44599 0.00390 -2541.35000 0.00229 2541.35000 -0.00000 0.00000 0.00000 0.00000 
0.45510 0.00538 -2555.08000 0.00199 2555.08000 -0.00000 0.00000 0.00000 0.00000 
0.46420 0.00676 -2573.54000 0.00172 2573.54000 0.00000 0.00000 0.00000 0.00000 
0.47330 0.00812 -2590.74000 0.00145 2590.74000 0.00000 0.00000 0.00000 0.00000 
0.48240 0.00943 -2608.16000 0.00121 2608.16000 -0.00000 0.00000 0.00000 0.00000 
0.49150 0.01070 -2625.33000 0.00097 2625.33000 0.00000 0.00000 0.00000 0.00000 
0.50060 0.01192 -2642.28000 0.00076 2642.28000 -0.00000 0.00000 0.00000 0.00000 
0.50971 0.01309 -2658.92000 0.00056 2658.92000 -0.00000 0.00000 0.00000 0.00000 
0.51881 0.01420 -2675.19000 0.00037 2675.19000 -0.00000 0.00000 0.00000 0.00000 
0.52791 0.01527 -2691.02000 0.00020 2691.02000 0.00000 0.00000 0.00000 0.00000 
0.53701 0.01628 -2706.36000 0.00006 2706.36000 0.00000 0.00000 0.00000 0.00000 
0.54611 0.01724 -2721.14000 -0.00007 2721.14000 0.00000 0.00000 0.00000 0.00000 
0.55522 0.01814 -2735.30000 -0.00018 2735.30000 -0.00000 0.00000 0.00000 0.00000 
0.56432 0.01899 -2748.79000 -0.00027 2748.79000 -0.00000 0.00000 0.00000 0.00000 
0.57342 0.01978 -2761.56000 -0.00034 2761.56000 -0.00000 0.00000 0.00000 0.00000 
0.58252 0.02052 -2773.55000 -0.00039 2773.55000 -0.00000 0.00000 0.00000 0.00000 
0.59162 0.02121 -2784.72000 -0.00042 2784.72000 -0.00000 0.00000 0.00000 0.00000 
0.60073 0.02184 -2795.04000 -0.00042 2795.04000 -0.00000 0.00000 0.00000 0.00001 
0.60983 0.02241 -2804.39000 -0.00040 2804.39000 -0.00000 0.00000 0.00000 0.00000 
0.61893 0.02294 -2813.03000 -0.00035 2813.03000 -0.00000 0.00000 0.00000 0.00000 
0.62803 0.02342 -2819.80000 -0.00029 2819.80000 -0.00000 0.00000 0.00000 0.00000 
0.63713 0.02383 -2828.90000 -0.00017 2828.90000 -0.00000 0.00000 0.00000 0.00000 
0.64624 0.02428 -2824.58000 -0.00012 2824.58000 -0.00001 0.00000 0.00000 0.00001 
0.65534 0.02431 -2874.69000 0.00037 2874.69000 -0.00000 0.00000 0.00000 0.00000 
0.66444 0.02388 -2992.17000 0.00140 2992.17000 -0.00000 0.00000 0.00000 0.00000 
0.67354 0.02358 -3094.45000 0.00237 3094.45000 -0.00000 0.00000 0.00000 0.00000 
0.68264 0.02329 -3199.60000 0.00340 3199.60000 -0.00000 0.00000 0.00000 0.00000 
0.69175 0.02308 -3302.63000 0.00446 3302.63000 -0.00000 0.00000 0.00000 0.00000 
0.70085 0.02291 -3407.42000 0.00558 3407.42000 -0.00000 0.00000 0.00000 0.00000 
0.70995 0.02286 -3504.92000 0.00666 3504.92000 -0.00000 0.00000 0.00000 0.00000 
0.71905 0.02277 -3628.61000 0.00799 3628.61000 -0.00000 0.00000 0.00000 0.00000 
0.72815 0.02344 -3628.61000 0.00836 3628.61000 -0.00000 -0.00000 0.00000 0.00000 
0.73725 0.02479 -3504.93000 0.00776 3504.93000 -0.00000 0.00000 0.00000 0.00000 
0.74636 0.02598 -3407.45000 0.00736 3407.45000 -0.00000 0.00000 0.00000 0.00000 
0.75546 0.02716 -3302.66000 0.00691 3302.66000 -0.00000 0.00000 0.00000 0.00000 
0.76456 0.02829 -3199.65000 0.00648 3199.65000 -0.00000 0.00000 0.00000 0.00000 
0.77366 0.02939 -3094.50000 0.00605 3094.50000 -0.00000 0.00000 0.00000 0.00000 
0.78276 0.03042 -2992.23000 0.00567 2992.23000 -0.00000 0.00000 -0.00000 0.00000 
0.79187 0.03146 -2874.75000 0.00518 2874.75000 0.00001 -0.00000 -0.00001 0.00002 
0.80097 0.03223 -2824.64000 0.00531 2824.64000 -0.00000 0.00000 0.00000 0.00000 
0.81007 0.03283 -2828.96000 0.00595 2828.96000 0.00001 0.00000 -0.00000 0.00001 
0.81917 0.03353 -2819.86000 0.00653 2819.86000 -0.00000 0.00000 0.00000 0.00000 
0.82827 0.03429 -2813.09000 0.00717 2813.09000 -0.00000 0.00000 0.00000 0.00000 
0.83737 0.03513 -2804.43000 0.00785 2804.43000 -0.00000 0.00000 0.00000 0.00000 
0.84648 0.03607 -2795.08000 0.00858 2795.08000 -0.00000 0.00000 0.00000 0.00000 
0.85558 0.03712 -2784.76000 0.00934 2784.76000 -0.00000 0.00000 0.00000 0.00000 
0.86468 0.03832 -2773.58000 0.01016 2773.58000 -0.00000 0.00000 0.00000 0.00000 
0.87378 0.03966 -2761.58000 0.01101 2761.58000 -0.00000 0.00000 0.00000 0.00000 
0.88289 0.04118 -2748.81000 0.01191 2748.81000 -0.00000 0.00000 0.00000 0.00000 
0.89199 0.04291 -2735.31000 0.01285 2735.31000 -0.00000 0.00000 0.00000 0.00000 
0.90109 0.04486 -2721.15000 0.01384 2721.15000 -0.00000 0.00000 0.00000 0.00000 
0.91019 0.04706 -2706.36000 0.01488 2706.36000 -0.00000 0.00000 0.00000 0.00000 
0.91929 0.04955 -2691.03000 0.01595 2691.03000 -0.00000 0.00000 0.00000 0.00000 
0.92839 0.05237 -2675.19000 0.01707 2675.19000 -0.00000 0.00000 0.00000 0.00000 
0.93750 0.05554 -2658.92000 0.01823 2658.92000 -0.00000 0.00000 0.00000 0.00000 
0.94660 0.05910 -2642.28000 0.01943 2642.28000 -0.00000 0.00000 0.00000 0.00000 
0.95570 0.06310 -2625.33000 0.02067 2625.33000 -0.00000 0.00000 0.00000 0.00000 
0.96480 0.06757 -2608.16000 0.02194 2608.16000 -0.00000 0.00000 0.00000 0.00000 
0.97390 0.07258 -2590.74000 0.02324 2590.74000 0.00000 0.00000 0.00000 0.00000 
0.98301 0.07815 -2573.54000 0.02457 2573.54000 0.00000 0.00000 0.00000 0.00000 
0.99211 0.08435 -2555.08000 0.02591 2555.08000 0.00000 0.00000 0.00000 0.00000 
1.00121 0.09124 -2541.35000 0.02730 2541.35000 0.00000 0.00000 0.00000 0.00001 
1.01031 0.09883 -2509.96000 0.02855 2509.96000 0.00000 0.00000 0.00000 0.00000 
1.01941 0.10746 -2593.60000 0.03079 2593.60000 0.00000 0.00000 0.00000 0.00000 
1.02851 0.11720 -2729.37000 0.03342 2729.37000 -0.00000 0.00000 0.00000 0.00000 
1.03762 0.12803 -2860.91000 0.03596 2860.91000 0.00000 0.00000 0.00000 0.00000 
1.04672 0.14012 -3003.00000 0.03852 3003.01000 0.00000 0.00000 0.00000 0.00000 
1.05582 0.15355 -3151.97000 0.04104 3151.97000 0.00000 0.00000 0.00000 0.00000 
1.06492 0.16845 -3309.06000 0.04353 3309.06000 0.00000 0.00000 0.00000 0.00000 
1.07402 0.18496 -3474.07000 0.04597 3474.07000 0.00000 0.00000 0.00000 0.00000 
1.08313 0.20321 -3647.13000 0.04834 3647.13000 0.00000 0.00000 0.00000 0.00000 
1.09223 0.22332 -3828.17000 0.05061 3828.17000 0.00000 -0.00000 0.00000 0.00000 
1.10133 0.24544 -4017.11000 0.05276 4017.11000 0.00000 -0.00000 0.00000 0.00000 
1.11043 0.26970 -4213.73000 0.05477 4213.73000 0.00000 -0.00000 0.00000 0.00000 
1.11953 0.29620 -4417.92000 0.05660 4417.92000 0.00000 -0.00000 0.00000 0.00000 
1.12864 0.32506 -4628.89000 0.05820 4628.89000 0.00000 -0.00000 0.00000 0.00000 
1.13774 0.35637 -4847.99000 0.05955 4847.99000 0.00000 -0.00000 0.00000 0.00000 
1.14684 0.39009 -5068.25000 0.06056 5068.25000 0.00000 -0.00000 0.00000 0.00000 
1.15594 0.42656 -5313.65000 0.06134 5313.65000 0.00000 -0.00000 0.00000 0.00000 
1.16504 0.46300 -5399.44000 0.06049 5399.44000 0.00000 -0.00000 0.00000 0.00000 
1.17415 0.50038 -5447.24000 0.05891 5447.24000 0.00000 -0.00000 0.00000 0.00000 
1.18325 0.53903 -5503.23000 0.05692 5503.23000 0.00000 -0.00000 0.00000 0.00000 
1.19235 0.57838 -5555.21000 0.05439 5555.21000 0.00000 -0.00000 0.00000 0.00000 
1.20145 0.61803 -5606.39000 0.05132 5606.39000 0.00000 -0.00000 0.00000 0.00000 
1.21055 0.65747 -5655.82000 0.04768 5655.82000 0.00000 -0.00000 0.00000 0.00000 
1.21965 0.69611 -5703.66000 0.04346 5703.66000 0.00000 -0.00000 0.00000 0.00000 
1.22876 0.73333 -5749.79000 0.03866 5749.79000 0.00000 -0.00000 0.00000 0.00000 
1.23786 0.76847 -5794.16000 0.03330 5794.16000 0.00000 -0.00000 0.00000 0.00000 
1.24696 0.80085 -5836.71000 0.02741 5836.71000 0.00000 -0.00000 0.00000 0.00000 
1.25606 0.82980 -5877.35000 0.02104 5877.35000 0.00000 -0.00000 0.00000 0.00000 
1.26516 0.85467 -5916.05000 0.01423 5916.05000 0.00000 0.00000 0.00001 0.00001 
1.27427 0.87488 -5952.73000 0.00708 5952.73000 -0.00000 0.00001 0.00001 0.00001 
1.28337 0.88992 -5987.33000 -0.00034 5987.33000 -0.00000 0.00001 0.00001 0.00001 
1.29247 0.89937 -6019.80000 -0.00792 6019.80000 -0.00000 0.00000 0.00000 0.00000 
1.30157 0.90302 -6050.09000 -0.01556 6050.09000 -0.00000 0.00000 0.00000 0.00000 
1.31067 0.90070 -6078.15000 -0.02315 6078.15000 -0.00000 -0.00000 -0.00000 0.00000 
1.31978 0.89231 -6103.93000 -0.03058 6103.93000 -0.00000 -0.00001 0.00000 0.00001 
1.32888 0.87823 -6127.38000 -0.03776 6127.38000 -0.00000 -0.00001 0.00000 0.00001 
1.33798 0.85863 -6148.50000 -0.04458 6148.50000 -0.00000 -0.00001 0.00001 0.00001 
1.34708 0.83396 -6167.08000 -0.05096 6167.08000 -0.00000 -0.00001 0.00001 0.00002 
1.35618 0.80476 -6183.79000 -0.05683 6183.79000 -0.00000 -0.00000 0.00000 0.00000 
1.36529 0.77157 -6195.97000 -0.06213 6195.97000 -0.00000 -0.00000 0.00000 0.00000 
1.37439 0.73529 -6213.42000 -0.06688 6213.42000 -0.00000 -0.00000 0.00000 0.00000 
1.38349 0.69202 -6018.81000 -0.06983 6018.81000 -0.00000 -0.00000 0.00000 0.00000 
1.39259 0.64765 -5812.20000 -0.07195 5812.20000 -0.00000 0.00000 0.00000 0.00000 
1.40169 0.60315 -5605.82000 -0.07336 5605.82000 -0.00000 0.00000 0.00000 0.00000 
1.41079 0.55910 -5397.08000 -0.07409 5397.08000 -0.00000 0.00000 0.00000 0.00000 
1.41990 0.51605 -5187.30000 -0.07420 5187.30000 -0.00000 0.00000 0.00000 0.00000 
1.42900 0.47442 -4976.66000 -0.07378 4976.66000 -0.00000 0.00000 0.00000 0.00000 
1.43810 0.43457 -4765.55000 -0.07288 4765.55000 -0.00000 0.00000 0.00000 0.00000 
1.44720 0.39675 -4554.23000 -0.07158 4554.23000 0.00000 0.00000 0.00000 0.00000 