Time(s) Force[Z](Revolution:2)-BalanceoCaso3.iaa(N) Force[Y](Revolution:2)-BalanceoCaso3.iaa(N) Force[X](Revolution:2)-BalanceoCaso3.iaa(N) Force(Revolution:2)-BalanceoCaso3.iaa(N) Moment[Z](Revolution:2)-BalanceoCaso3.iaa(N.mm) Moment[Y](Revolution:2)-BalanceoCaso3.iaa(N.mm) Moment[X](Revolution:2)-BalanceoCaso3.iaa(N.mm) Moment(Revolution:2)-BalanceoCaso3.iaa(N.mm) 
0.00000 23.05540 -4403.34000 1168.56000 4555.82000 870409.00000 21551.40000 64032.90000 873027.00000 
0.00910 24.12550 -4607.58000 1222.77000 4767.13000 910783.00000 22551.30000 67003.00000 913523.00000 
0.01820 25.19810 -4811.62000 1276.90000 4978.23000 951132.00000 23550.40000 69970.10000 953993.00000 
0.02731 26.27600 -5015.22000 1330.84000 5188.86000 991423.00000 24548.00000 72930.40000 994404.00000 
0.03641 27.36170 -5218.01000 1384.45000 5398.62000 1031600.00000 25542.40000 75878.20000 1034700.00000 
0.04551 28.45950 -5419.83000 1437.64000 5607.34000 1071650.00000 26533.20000 78810.90000 1074870.00000 
0.05461 29.56790 -5619.43000 1490.04000 5813.70000 1111340.00000 27514.60000 81710.00000 1114680.00000 
0.06371 30.70560 -5819.31000 1542.23000 6020.29000 1151210.00000 28499.00000 84611.50000 1154660.00000 
0.07282 31.81510 -6007.67000 1591.04000 6214.87000 1188920.00000 29428.70000 87343.50000 1192490.00000 
0.08192 31.87070 -5991.12000 1585.22000 6197.37000 1186220.00000 29355.80000 87093.80000 1189770.00000 
0.09102 31.97900 -5979.73000 1580.45000 6185.15000 1184660.00000 29308.70000 86917.40000 1188200.00000 
0.10012 32.08590 -5964.06000 1574.22000 6168.41000 1182360.00000 29240.30000 86676.40000 1185890.00000 
0.10922 32.20060 -5946.66000 1567.22000 6149.79000 1179830.00000 29162.10000 86408.10000 1183350.00000 
0.11832 32.31460 -5926.89000 1559.25000 6128.65000 1176930.00000 29070.00000 86103.10000 1180440.00000 
0.12743 32.42340 -5904.95000 1550.40000 6105.18000 1173700.00000 28963.80000 85764.40000 1177190.00000 
0.13653 32.52079 -5880.86000 1540.64000 6079.40000 1170130.00000 28842.20000 85391.90000 1173600.00000 
0.14563 32.60030 -5854.64000 1529.98000 6051.34000 1166220.00000 28704.10000 84986.30000 1169670.00000 
0.15473 32.65500 -5826.36000 1518.45000 6021.07000 1161970.00000 28548.20000 84548.30000 1165390.00000 
0.16383 32.67740 -5796.06000 1506.05000 5988.61000 1157380.00000 28373.10000 84078.60000 1160770.00000 
0.17294 32.65990 -5763.78000 1492.78000 5954.04000 1152440.00000 28177.30000 83578.00000 1155810.00000 
0.18204 32.59410 -5729.58000 1478.67000 5917.40000 1147170.00000 27959.50000 83047.40000 1150510.00000 
0.19114 32.47180 -5693.51000 1463.72000 5878.74000 1141550.00000 27718.00000 82487.90000 1144860.00000 
0.20024 32.28420 -5655.64000 1447.95000 5838.14000 1135590.00000 27451.20000 81900.40000 1138870.00000 
0.20934 32.02240 -5616.01000 1431.36000 5795.64000 1129290.00000 27157.70000 81286.20000 1132530.00000 
0.21845 31.67728 -5574.69000 1413.98000 5751.31000 1122640.00000 26835.60000 80646.40000 1125850.00000 
0.22755 31.23980 -5531.75000 1395.83000 5705.22000 1115650.00000 26483.40000 79982.60000 1118820.00000 
0.23665 30.70043 -5487.22000 1376.90000 5657.41000 1108310.00000 26099.30000 79295.90000 1111450.00000 
0.24575 30.05039 -5441.23000 1357.23000 5608.02000 1100630.00000 25682.10000 78588.70000 1103730.00000 
0.25485 29.27910 -5393.61000 1336.78000 5556.88000 1092570.00000 25229.00000 77859.50000 1095630.00000 
0.26395 28.38200 -5345.29000 1315.78000 5504.93000 1084300.00000 24742.50000 77122.30000 1087320.00000 
0.27306 27.33340 -5293.14000 1293.47000 5448.96000 1075170.00000 24206.30000 76333.10000 1078150.00000 
0.28216 26.18450 -5249.02000 1272.73000 5401.18000 1067580.00000 23672.70000 75664.00000 1070520.00000 
0.29126 24.70600 -5168.04000 1242.72000 5315.41000 1052370.00000 22938.80000 74469.00000 1055250.00000 
0.30036 22.37920 -4931.81000 1175.45000 5070.00000 1005380.00000 21495.80000 71044.60000 1008120.00000 
0.30946 20.09900 -4719.91000 1114.43000 4849.73000 963147.00000 20153.10000 67979.70000 965754.00000 
0.31857 17.77130 -4509.02000 1054.13000 4630.63000 920912.00000 18812.00000 64938.80000 923390.00000 
0.32767 15.44020 -4305.88000 996.20166 4419.64000 880061.00000 17505.20000 62019.30000 882418.00000 
0.33677 13.11610 -4109.20000 940.37900 4215.45000 840341.00000 16231.40000 59202.40000 842580.00000 
0.34587 10.81760 -3919.72000 886.86700 4018.81000 801916.00000 14997.10000 56498.50000 804044.00000 
0.35497 8.56059 -3737.56000 835.71400 3829.86000 764826.00000 13806.50000 53908.90000 766848.00000 
0.36408 6.36074 -3562.92000 786.97900 3648.80000 729129.00000 12663.60000 51435.80000 731050.00000 
0.37318 4.23229 -3395.89000 740.68900 3475.73000 694861.00000 11571.70000 49079.70000 696688.00000 
0.38228 2.18815 -3236.53000 696.85500 3310.70000 662053.00000 10533.50000 46840.50000 663792.00000 
0.39138 0.23964 -3084.73000 655.44500 3153.60000 630702.00000 9550.84000 44715.50000 632357.00000 
0.40048 -1.60348 -2940.69000 616.48400 3004.62000 600863.00000 8625.95000 42706.40000 602440.00000 
0.40959 -3.33208 -2803.19000 579.69900 2862.50000 572306.00000 7756.58000 40794.10000 573811.00000 
0.41869 -4.94478 -2675.85000 545.81200 2730.95000 545788.00000 6953.35000 39030.40000 547226.00000 
0.42779 -6.40617 -2544.18000 511.85300 2595.17000 518369.00000 6179.96000 37202.50000 519739.00000 
0.43689 -7.86696 -2463.46000 488.85730 2511.51000 501320.00000 5567.05000 36118.20000 502650.00000 
0.44599 -9.65734 -2495.52000 488.53400 2542.91000 507184.00000 5220.66000 36691.30000 508536.00000 
0.45510 -11.40650 -2510.22000 484.84600 2556.64000 509466.00000 4835.10000 37015.90000 510832.00000 
0.46420 -13.18720 -2529.53000 482.13400 2575.10000 512639.00000 4459.21000 37414.20000 514021.00000 
0.47330 -14.96730 -2547.57000 479.26532 2592.30000 515513.00000 4082.73000 37798.80000 516913.00000 
0.48240 -16.74740 -2565.79000 476.53600 2609.73000 518392.00000 3709.82000 38190.40000 519810.00000 
0.49150 -18.51770 -2583.73000 473.87100 2626.89000 521187.00000 3341.14000 38581.40000 522623.00000 
0.50060 -20.27169 -2601.42000 471.29000 2643.85000 523910.00000 2978.16000 38971.40000 525366.00000 
0.50971 -22.00190 -2618.77000 468.79300 2660.49000 526550.00000 2622.17000 39358.20000 528025.00000 
0.51881 -23.70100 -2635.71000 466.38200 2676.76000 529101.00000 2274.49000 39740.00000 530596.00000 
0.52791 -25.36180 -2652.18000 464.06100 2692.59000 531556.00000 1936.39000 40115.00000 533071.00000 
0.53701 -26.97710 -2668.12000 461.83300 2707.93000 533908.00000 1609.13000 40481.30000 535443.00000 
0.54611 -28.53990 -2683.47000 459.70400 2722.71000 536153.00000 1293.94000 40837.20000 537708.00000 
0.55522 -30.04330 -2698.17000 457.67700 2736.87000 538285.00000 992.00800 41180.80000 539858.00000 
0.56432 -31.48060 -2712.16000 455.75700 2750.37000 540297.00000 704.48400 41510.40000 541890.00000 
0.57342 -32.84530 -2725.39000 453.94800 2763.13000 542187.00000 432.47000 41824.30000 543798.00000 
0.58252 -34.13140 -2737.82000 452.25600 2775.13000 543949.00000 177.01600 42121.00000 545577.00000 
0.59162 -35.33270 -2749.38000 450.68400 2786.30000 545577.00000 -60.88770 42398.80000 547222.00000 
0.60073 -36.44400 -2760.06000 449.24100 2796.61000 547074.00000 -280.31300 42656.60000 548735.00000 
0.60983 -37.45919 -2769.73000 447.91700 2805.96000 548419.00000 -480.38700 42891.80000 550094.00000 
0.61893 -38.37750 -2778.66000 446.76600 2814.61000 549668.00000 -660.38100 43107.90000 551357.00000 
0.62803 -39.17900 -2785.69000 445.61100 2821.38000 550598.00000 -819.29071 43286.20000 552297.00000 
0.63713 -39.91900 -2794.97000 445.12300 2830.47000 552030.00000 -957.78600 43490.70000 553741.00000 
0.64624 -40.37117 -2790.95000 442.83500 2826.15000 550898.00000 -1069.77000 43478.90000 552612.00000 
0.65534 -41.50780 -2840.65000 449.37900 2876.27000 560430.00000 -1181.52000 44294.90000 562179.00000 
0.66444 -43.54090 -2956.85000 466.69600 2993.77000 583134.00000 -1304.02000 46140.60000 584958.00000 
0.67354 -45.28560 -3058.00000 481.85100 3096.06000 602914.00000 -1405.04000 47744.90000 604803.00000 
0.68264 -47.00880 -3161.96000 497.65100 3201.23000 623289.00000 -1493.36000 49386.70000 625244.00000 
0.69175 -48.64440 -3263.80000 513.29600 3304.27000 643282.00000 -1568.26000 50989.60000 645301.00000 
0.70085 -50.25864 -3367.35000 529.36300 3409.08000 663646.00000 -1633.57000 52614.70000 665730.00000 
0.70995 -51.72900 -3463.69000 544.41000 3506.59000 682611.00000 -1687.40000 54123.30000 684755.00000 
0.71905 -53.56290 -3585.89000 563.59800 3630.30000 706689.00000 -1748.78000 56033.80000 708909.00000 
0.72815 -53.56130 -3585.89000 563.59900 3630.31000 706690.00000 -1748.46000 56033.70000 708910.00000 
0.73725 -51.72420 -3463.71000 544.41500 3506.61000 682614.00000 -1686.44000 54123.10000 684759.00000 
0.74636 -50.25070 -3367.38000 529.37200 3409.11000 663652.00000 -1631.98000 52614.50000 665736.00000 
0.75546 -48.63340 -3263.83000 513.30800 3304.31000 643290.00000 -1566.05000 50989.30000 645309.00000 
0.76456 -46.99480 -3162.01000 497.66600 3201.28000 623299.00000 -1490.55000 49386.30000 625254.00000 
0.77366 -45.26860 -3058.05000 481.86800 3096.12000 602925.00000 -1401.63000 47744.30000 604814.00000 
0.78276 -43.52090 -2956.91000 466.71600 2993.83000 583146.00000 -1300.01000 46140.00000 584970.00000 
0.79187 -41.48480 -2840.70000 449.40000 2876.33000 560443.00000 -1176.94000 44294.00000 562192.00000 
0.80097 -40.34510 -2791.01000 442.85900 2826.21000 550911.00000 -1064.58000 43477.80000 552625.00000 
0.81007 -39.88960 -2795.03000 445.14800 2830.53000 552043.00000 -951.96100 43489.30000 553754.00000 
0.81917 -39.14630 -2785.74000 445.63800 2821.43000 550609.00000 -812.82900 43284.50000 552309.00000 
0.82827 -38.34150 -2778.71000 446.79400 2814.66000 549679.00000 -653.27500 43105.90000 551367.00000 
0.83737 -37.41980 -2769.77000 447.94600 2806.01000 548428.00000 -472.63300 42889.50000 550103.00000 
0.84648 -36.40130 -2760.09000 449.27066 2796.65000 547082.00000 -271.90700 42654.00000 548743.00000 
0.85558 -35.28650 -2749.40000 450.71500 2786.32000 545584.00000 -51.82730 42395.80000 547229.00000 
0.86468 -34.08190 -2737.83000 452.28830 2775.15000 543954.00000 186.73400 42117.70000 545582.00000 
0.87378 -32.79253 -2725.40000 453.98200 2763.15000 542191.00000 442.84700 41820.70000 543802.00000 
0.88289 -31.42450 -2712.16000 455.79200 2750.37000 540301.00000 715.52000 41506.50000 541893.00000 
0.89199 -29.98390 -2698.17000 457.71500 2736.88000 538287.00000 1003.70000 41176.70000 539860.00000 
0.90109 -28.47740 -2683.46000 459.74400 2722.71000 536155.00000 1306.29000 40832.80000 537709.00000 
0.91019 -26.91140 -2668.11000 461.87600 2707.93000 533909.00000 1622.13000 40476.80000 535444.00000 
0.91929 -25.29310 -2652.17000 464.10600 2692.59000 531556.00000 1950.03000 40110.30000 533070.00000 
0.92839 -23.62940 -2635.69000 466.43100 2676.75000 529101.00000 2288.76000 39735.10000 530595.00000 
0.93750 -21.92740 -2618.75000 468.84500 2660.48000 526550.00000 2637.06000 39353.20000 528025.00000 
0.94660 -20.19460 -2601.40000 471.34726 2643.83000 523909.00000 2993.65000 38966.30000 525365.00000 
0.95570 -18.43810 -2583.71000 473.93200 2626.88000 521186.00000 3357.20000 38576.20000 522622.00000 
0.96480 -16.66540 -2565.77000 476.60200 2609.71000 518391.00000 3726.43000 38185.20000 519809.00000 
0.97390 -14.88340 -2547.54000 479.33600 2592.29000 515512.00000 4099.84000 37793.50000 516912.00000 
0.98301 -13.10140 -2529.50000 482.20990 2575.09000 512638.00000 4476.77000 37409.00000 514020.00000 
0.99211 -11.31930 -2510.19000 484.92800 2556.63000 509465.00000 4853.07000 37010.80000 510830.00000 
1.00121 -9.56901 -2495.49000 488.62200 2542.89000 507183.00000 5238.98000 36686.20000 508535.00000 
1.01031 -7.77808 -2463.43000 488.95100 2511.50000 501318.00000 5585.59000 36113.20000 502648.00000 
1.01941 -6.31616 -2544.15000 511.95400 2595.15000 518367.00000 6198.88000 37197.60000 519737.00000 
1.02851 -4.85367 -2675.81000 545.92100 2730.93000 545786.00000 6972.64000 39025.60000 547223.00000 
1.03762 -3.24055 -2803.15000 579.81700 2862.49000 572304.00000 7776.11000 40789.40000 573808.00000 
1.04672 -1.51215 -2940.65000 616.61000 3004.60000 600860.00000 8645.61000 42701.80000 602438.00000 
1.05582 0.32999 -3084.69000 655.58000 3153.58000 630698.00000 9570.48000 44711.10000 632354.00000 
1.06492 2.27668 -3236.48000 697.00000 3310.68000 662049.00000 10553.00000 46836.30000 663788.00000 
1.07402 4.31804 -3395.84000 740.84300 3475.71000 694857.00000 11590.80000 49075.80000 696684.00000 
1.08313 6.44263 -3562.86000 787.14300 3648.78000 729124.00000 12682.10000 51432.20000 731046.00000 
1.09223 8.63742 -3737.50000 835.88800 3829.84000 764821.00000 13824.20000 53905.60000 766843.00000 
1.10133 10.88810 -3919.66000 887.05127 4018.80000 801911.00000 15013.70000 56495.50000 804038.00000 
1.11043 13.17890 -4109.14000 940.57400 4215.44000 840336.00000 16246.60000 59199.80000 842575.00000 
1.11953 15.49390 -4305.83000 996.40564 4419.64000 880056.00000 17518.90000 62017.10000 882413.00000 
1.12864 17.81450 -4508.97000 1054.34000 4630.63000 920907.00000 18823.60000 64937.00000 923385.00000 
1.13774 20.13036 -4719.87000 1114.65000 4849.74000 963144.00000 20162.60000 67978.40000 965750.00000 
1.14684 22.39730 -4931.77000 1175.68000 5070.02000 1005380.00000 21502.80000 71043.70000 1008120.00000 
1.15594 24.70990 -5168.02000 1242.96000 5315.44000 1052370.00000 22943.00000 74468.60000 1055250.00000 
1.16504 26.17220 -5249.02000 1272.97000 5401.23000 1067580.00000 23673.70000 75664.10000 1070520.00000 
1.17415 27.30460 -5293.16000 1293.71000 5449.03000 1075180.00000 24204.00000 76333.80000 1078150.00000 
1.18325 28.33720 -5345.33000 1316.02000 5505.03000 1084310.00000 24737.00000 77123.50000 1087330.00000 
1.19235 29.21910 -5393.68000 1337.02000 5557.00000 1092590.00000 25220.40000 77861.20000 1095650.00000 
1.20145 29.97680 -5441.34000 1357.46000 5608.18000 1100660.00000 25670.80000 78591.00000 1103760.00000 
1.21055 30.61560 -5487.36000 1377.12000 5657.61000 1108340.00000 26085.60000 79298.70000 1111480.00000 
1.21965 31.14650 -5531.94000 1396.04000 5705.46000 1115690.00000 26467.90000 79986.00000 1118860.00000 
1.22876 31.57900 -5574.93000 1414.19000 5751.59000 1122690.00000 26819.00000 80650.40000 1125900.00000 
1.23786 31.92310 -5616.30000 1431.56000 5795.96000 1129340.00000 27140.70000 81290.80000 1132590.00000 
1.24696 32.18810 -5655.97000 1448.14000 5838.50000 1135660.00000 27434.80000 81905.50000 1138940.00000 
1.25606 32.38332 -5693.89000 1463.90000 5879.15000 1141630.00000 27702.90000 82493.50000 1144940.00000 
1.26516 32.51740 -5730.00000 1478.85000 5917.85000 1147250.00000 27946.70000 83053.60000 1150590.00000 
1.27427 32.59870 -5764.24000 1492.95000 5954.53000 1152540.00000 28167.50000 83584.60000 1155910.00000 
1.28337 32.63490 -5796.55000 1506.21000 5989.13000 1157470.00000 28367.00000 84085.60000 1160870.00000 
1.29247 32.63340 -5826.87000 1518.62000 6021.60000 1162070.00000 28546.20000 84555.70000 1165490.00000 
1.30157 32.60080 -5855.17000 1530.15000 6051.90000 1166330.00000 28706.60000 84993.90000 1169770.00000 
1.31067 32.54350 -5881.38000 1540.80000 6079.95000 1170240.00000 28849.20000 85399.60000 1173700.00000 
1.31978 32.46720 -5905.48000 1550.57000 6105.73000 1173810.00000 28975.10000 85772.10000 1177290.00000 
1.32888 32.37720 -5927.39000 1559.44000 6129.18000 1177030.00000 29085.10000 86110.70000 1180540.00000 
1.33798 32.27900 -5947.14000 1567.41000 6150.30000 1179930.00000 29180.60000 86415.50000 1183450.00000 
1.34708 32.17620 -5964.50000 1574.43000 6168.89000 1182450.00000 29261.30000 86683.40000 1185980.00000 
1.35618 32.07700 -5980.14000 1580.66000 6185.59000 1184740.00000 29331.40000 86923.90000 1188280.00000 
1.36529 31.97170 -5991.47000 1585.44000 6197.77000 1186290.00000 29379.30000 87099.70000 1189840.00000 
1.37439 31.91460 -6007.98000 1591.27000 6215.23000 1188980.00000 29452.00000 87348.70000 1192550.00000 
1.38349 30.79970 -5819.58000 1542.47000 6020.60000 1151260.00000 28521.30000 84616.00000 1154710.00000 
1.39259 29.65330 -5619.65000 1490.28000 5813.97000 1111390.00000 27535.20000 81713.80000 1114730.00000 
1.40169 28.53340 -5420.01000 1437.89000 5607.57000 1071680.00000 26551.60000 78814.00000 1074900.00000 
1.41079 27.42205 -5218.15000 1384.70000 5398.81000 1031620.00000 25558.10000 75880.60000 1034730.00000 
1.41990 26.32130 -5015.32000 1331.08000 5189.02000 991440.00000 24560.70000 72932.10000 994422.00000 
1.42900 25.22770 -4811.68000 1277.14000 4978.35000 951143.00000 23559.90000 69971.20000 954004.00000 
1.43810 24.13920 -4607.62000 1223.01000 4767.23000 910789.00000 22557.50000 67003.70000 913529.00000 
1.44720 23.05350 -4403.36000 1168.80000 4555.90000 870410.00000 21554.50000 64033.10000 873029.00000 
