Time(s) Force[Z](Spherical:9)-ArfadaCaso3.iaa(N) Force[Y](Spherical:9)-ArfadaCaso3.iaa(N) Force[X](Spherical:9)-ArfadaCaso3.iaa(N) Force(Spherical:9)-ArfadaCaso3.iaa(N) Moment[Z](Spherical:9)-ArfadaCaso3.iaa(N.mm) Moment[Y](Spherical:9)-ArfadaCaso3.iaa(N.mm) Moment[X](Spherical:9)-ArfadaCaso3.iaa(N.mm) Moment(Spherical:9)-ArfadaCaso3.iaa(N.mm) 
0.00000 -0.26580 4156.84000 0.00762 4156.84000 0.00003 0.00004 -0.00012 0.00013 
0.00635 -0.28240 4233.57000 0.00810 4233.57000 -0.00000 0.00000 0.00004 0.00004 
0.01270 -0.29900 4310.44000 0.00859 4310.44000 -0.00000 0.00000 0.00004 0.00004 
0.01905 -0.31560 4387.52000 0.00908 4387.52000 -0.00000 0.00000 0.00004 0.00004 
0.02540 -0.33218 4464.92000 0.00958 4464.92000 -0.00000 0.00000 0.00004 0.00004 
0.03175 -0.34872 4542.87000 0.01009 4542.87000 -0.00000 0.00000 0.00004 0.00004 
0.03810 -0.36512 4621.18000 0.01060 4621.18000 -0.00000 0.00000 0.00004 0.00004 
0.04445 -0.38156 4701.39000 0.01113 4701.39000 -0.00000 0.00000 0.00004 0.00004 
0.05080 -0.39705 4778.59000 0.01164 4778.59000 -0.00000 0.00000 0.00004 0.00004 
0.05715 -0.39593 4779.99000 0.01167 4779.99000 -0.00000 0.00000 0.00004 0.00004 
0.06350 -0.39529 4785.60000 0.01172 4785.60000 -0.00000 0.00000 0.00005 0.00005 
0.06985 -0.39436 4791.14000 0.01177 4791.14000 -0.00000 0.00000 0.00004 0.00004 
0.07620 -0.39334 4797.78000 0.01182 4797.78000 -0.00000 0.00000 0.00004 0.00004 
0.08255 -0.39219 4805.19000 0.01188 4805.19000 -0.00000 0.00000 0.00004 0.00004 
0.08890 -0.39093 4813.43000 0.01193 4813.43000 -0.00000 0.00000 0.00004 0.00004 
0.09525 -0.38956 4822.47000 0.01200 4822.47000 -0.00000 0.00000 0.00004 0.00004 
0.10160 -0.38809 4832.29000 0.01206 4832.29000 -0.00000 0.00000 0.00004 0.00004 
0.10795 -0.38651 4842.87000 0.01213 4842.87000 -0.00000 0.00000 0.00004 0.00004 
0.11430 -0.38484 4854.19000 0.01220 4854.19000 -0.00001 0.00000 0.00004 0.00005 
0.12065 -0.38309 4866.24000 0.01227 4866.24000 -0.00000 0.00000 0.00004 0.00004 
0.12700 -0.38126 4878.97000 0.01235 4878.97000 -0.00000 0.00000 0.00004 0.00004 
0.13335 -0.37936 4892.39000 0.01243 4892.39000 -0.00000 0.00000 0.00005 0.00005 
0.13970 -0.37739 4906.45000 0.01251 4906.45000 -0.00001 0.00000 0.00005 0.00005 
0.14605 -0.37535 4921.13000 0.01259 4921.13000 -0.00000 0.00000 0.00005 0.00005 
0.15240 -0.37326 4936.41000 0.01267 4936.41000 -0.00000 0.00000 0.00005 0.00005 
0.15875 -0.37112 4952.26000 0.01276 4952.26000 -0.00001 0.00000 0.00005 0.00005 
0.16510 -0.36893 4968.64000 0.01284 4968.64000 -0.00000 -0.00000 0.00005 0.00005 
0.17145 -0.36670 4985.55000 0.01293 4985.55000 -0.00000 -0.00000 0.00005 0.00005 
0.17780 -0.36441 5002.89000 0.01302 5002.89000 -0.00000 -0.00000 0.00005 0.00005 
0.18415 -0.36214 5020.94000 0.01311 5020.94000 -0.00000 -0.00000 0.00005 0.00005 
0.19050 -0.35964 5038.29000 0.01320 5038.29000 0.00000 -0.00000 0.00005 0.00005 
0.19685 -0.35784 5060.78000 0.01331 5060.78000 0.00000 -0.00000 0.00005 0.00005 
0.20320 -0.35317 5062.79000 0.01330 5062.79000 0.00000 -0.00000 0.00005 0.00005 
0.20955 -0.33645 4985.65000 0.01274 4985.65000 0.00000 -0.00000 0.00005 0.00005 
0.21590 -0.32208 4918.73000 0.01227 4918.73000 0.00000 -0.00000 0.00005 0.00005 
0.22225 -0.30813 4846.38000 0.01179 4846.38000 0.00000 -0.00000 0.00005 0.00005 
0.22860 -0.29511 4773.11000 0.01135 4773.11000 0.00000 -0.00000 0.00005 0.00005 
0.23495 -0.28288 4697.49000 0.01092 4697.49000 0.00000 -0.00000 0.00005 0.00005 
0.24130 -0.27145 4619.88000 0.01052 4619.88000 0.00000 -0.00000 0.00005 0.00005 
0.24765 -0.26079 4540.13000 0.01015 4540.13000 0.00000 -0.00000 0.00005 0.00005 
0.25400 -0.25085 4458.28000 0.00981 4458.28000 0.00000 -0.00000 0.00005 0.00005 
0.26035 -0.24162 4374.34000 0.00950 4374.34000 0.00000 -0.00000 0.00005 0.00005 
0.26670 -0.23303 4288.38000 0.00923 4288.38000 0.00000 -0.00000 0.00004 0.00004 
0.27305 -0.22506 4200.42000 0.00898 4200.42000 -0.00000 0.00000 0.00004 0.00004 
0.27940 -0.21766 4110.68000 0.00877 4110.68000 0.00000 -0.00000 0.00004 0.00004 
0.28575 -0.21071 4018.68000 0.00859 4018.68000 0.00000 -0.00000 0.00004 0.00004 
0.29210 -0.20446 3926.88000 0.00846 3926.88000 0.00000 -0.00000 0.00004 0.00004 
0.29845 -0.19773 3825.90000 0.00830 3825.90000 0.00000 -0.00000 0.00004 0.00004 
0.30480 -0.19492 3756.64000 0.00839 3756.64000 0.00000 -0.00000 0.00004 0.00004 
0.31115 -0.20089 3765.35000 0.00906 3765.35000 0.00000 -0.00000 0.00004 0.00004 
0.31750 -0.20511 3760.57000 0.00964 3760.57000 -0.00000 0.00000 0.00003 0.00003 
0.32385 -0.20941 3759.83000 0.01025 3759.83000 -0.00000 0.00000 0.00003 0.00003 
0.33020 -0.21333 3758.15000 0.01086 3758.15000 -0.00000 0.00000 0.00003 0.00003 
0.33655 -0.21699 3756.91000 0.01148 3756.91000 -0.00000 0.00000 0.00003 0.00003 
0.34290 -0.22040 3755.72000 0.01210 3755.72000 -0.00000 0.00000 0.00003 0.00003 
0.34925 -0.22356 3754.68000 0.01273 3754.68000 -0.00000 0.00000 0.00003 0.00003 
0.35560 -0.22648 3753.75000 0.01337 3753.75000 -0.00000 0.00000 0.00003 0.00003 
0.36195 -0.22917 3752.93000 0.01402 3752.93000 -0.00000 0.00000 0.00003 0.00003 
0.36829 -0.23165 3752.21000 0.01467 3752.21000 -0.00000 0.00000 0.00003 0.00003 
0.37465 -0.23392 3751.58000 0.01533 3751.58000 -0.00000 0.00000 0.00003 0.00003 
0.38099 -0.23599 3751.04000 0.01600 3751.04000 -0.00000 0.00000 0.00003 0.00003 
0.38734 -0.23786 3750.57000 0.01667 3750.57000 -0.00000 0.00000 0.00003 0.00003 
0.39370 -0.23953 3750.17000 0.01736 3750.17000 0.00000 0.00000 0.00003 0.00003 
0.40004 -0.24103 3749.83000 0.01805 3749.83000 -0.00000 0.00000 0.00003 0.00003 
0.40640 -0.24234 3749.56000 0.01875 3749.56000 -0.00000 0.00000 0.00003 0.00003 
0.41274 -0.24347 3749.32000 0.01945 3749.32000 -0.00000 0.00000 0.00003 0.00003 
0.41909 -0.24442 3749.15000 0.02017 3749.15000 -0.00000 0.00000 0.00003 0.00003 
0.42545 -0.24520 3748.95000 0.02089 3748.95000 -0.00000 0.00000 0.00004 0.00004 
0.43179 -0.24582 3749.01000 0.02161 3749.01000 -0.00000 0.00000 0.00003 0.00003 
0.43815 -0.24620 3748.25000 0.02234 3748.25000 -0.00000 0.00000 0.00003 0.00003 
0.44449 -0.24668 3750.69000 0.02309 3750.69000 0.00000 0.00000 0.00003 0.00003 
0.45084 -0.24597 3741.24000 0.02375 3741.24000 -0.00000 0.00000 0.00004 0.00004 
0.45719 -0.24967 3785.52000 0.02489 3785.52000 -0.00000 0.00000 0.00004 0.00004 
0.46354 -0.25885 3896.55000 0.02667 3896.55000 -0.00000 0.00000 0.00004 0.00004 
0.46989 -0.26665 3994.21000 0.02838 3994.21000 -0.00000 0.00000 0.00004 0.00004 
0.47624 -0.27458 4095.65000 0.03019 4095.65000 -0.00000 0.00000 0.00004 0.00004 
0.48259 -0.28222 4195.64000 0.03205 4195.64000 -0.00000 0.00000 0.00004 0.00004 
0.48894 -0.28988 4297.71000 0.03401 4297.71000 0.00000 0.00000 0.00004 0.00004 
0.49529 -0.29681 4392.83000 0.03599 4392.83000 -0.00000 0.00000 0.00004 0.00004 
0.50164 -0.30576 4513.56000 0.03834 4513.56000 -0.00000 0.00000 0.00004 0.00004 
0.50799 -0.30444 4513.56000 0.03944 4513.56000 -0.00000 0.00000 0.00004 0.00004 
0.51434 -0.29294 4392.83000 0.03917 4392.83000 -0.00000 0.00000 0.00004 0.00004 
0.52069 -0.28353 4297.71000 0.03916 4297.71000 0.00000 0.00000 0.00004 0.00004 
0.52704 -0.27349 4195.64000 0.03903 4195.64000 -0.00000 0.00000 0.00004 0.00004 
0.53339 -0.26354 4095.65000 0.03888 4095.65000 -0.00000 0.00000 0.00004 0.00004 
0.53974 -0.25339 3994.21000 0.03864 3994.21000 -0.00000 0.00000 0.00004 0.00004 
0.54609 -0.24341 3896.55000 0.03837 3896.55000 -0.00000 0.00000 0.00004 0.00004 
0.55244 -0.23217 3785.53000 0.03781 3785.53000 -0.00000 0.00000 0.00004 0.00004 
0.55879 -0.22624 3741.25000 0.03809 3741.25000 -0.00000 0.00000 0.00004 0.00004 
0.56514 -0.22450 3750.69000 0.03910 3750.69000 0.00000 0.00000 0.00003 0.00003 
0.57149 -0.22154 3748.26000 0.03990 3748.26000 0.00000 0.00000 0.00003 0.00004 
0.57784 -0.21861 3749.02000 0.04071 3749.02000 0.00000 0.00000 0.00004 0.00004 
0.58419 -0.21537 3748.96000 0.04146 3748.96000 -0.00000 0.00000 0.00004 0.00004 
0.59054 -0.21190 3749.16000 0.04215 3749.16000 0.00000 0.00000 0.00004 0.00004 
0.59689 -0.20817 3749.33000 0.04278 3749.33000 0.00000 0.00000 0.00004 0.00004 
0.60324 -0.20420 3749.56000 0.04333 3749.56000 0.00000 0.00000 0.00004 0.00004 
0.60959 -0.19997 3749.84000 0.04381 3749.84000 0.00000 0.00000 0.00004 0.00004 
0.61594 -0.19548 3750.18000 0.04419 3750.18000 0.00000 0.00000 0.00004 0.00004 
0.62229 -0.19074 3750.58000 0.04447 3750.58000 -0.00000 0.00000 0.00003 0.00003 
0.62864 -0.18573 3751.04000 0.04464 3751.04000 0.00000 0.00000 0.00004 0.00004 
0.63499 -0.18047 3751.59000 0.04469 3751.59000 0.00000 0.00000 0.00004 0.00004 
0.64134 -0.17496 3752.21000 0.04459 3752.21000 0.00000 0.00000 0.00004 0.00004 
0.64769 -0.16920 3752.94000 0.04434 3752.94000 0.00000 0.00000 0.00003 0.00003 
0.65404 -0.16320 3753.75000 0.04393 3753.75000 0.00000 0.00000 0.00004 0.00004 
0.66039 -0.15696 3754.68000 0.04334 3754.68000 0.00000 0.00000 0.00004 0.00004 
0.66674 -0.15050 3755.72000 0.04254 3755.72000 0.00000 0.00000 0.00004 0.00004 
0.67309 -0.14383 3756.91000 0.04153 3756.91000 0.00000 0.00000 0.00004 0.00004 
0.67944 -0.13696 3758.14000 0.04028 3758.14000 0.00000 0.00000 0.00003 0.00003 
0.68579 -0.12995 3759.82000 0.03878 3759.82000 0.00000 0.00000 0.00004 0.00004 
0.69214 -0.12271 3760.56000 0.03697 3760.56000 0.00000 0.00000 0.00003 0.00003 
0.69849 -0.11563 3765.34000 0.03500 3765.34000 0.00000 0.00000 0.00004 0.00004 
0.70484 -0.10746 3756.63000 0.03220 3756.63000 0.00000 0.00000 0.00004 0.00004 
0.71119 -0.10551 3825.89000 0.03245 3825.89000 0.00000 0.00000 0.00004 0.00004 
0.71754 -0.10587 3926.86000 0.03424 3926.86000 0.00000 0.00000 0.00004 0.00004 
0.72389 -0.10540 4018.66000 0.03599 4018.66000 -0.00000 0.00000 0.00004 0.00004 
0.73024 -0.10483 4110.65000 0.03817 4110.65000 0.00000 0.00000 0.00004 0.00004 
0.73659 -0.10391 4200.38000 0.04071 4200.38000 0.00000 0.00000 0.00004 0.00004 
0.74294 -0.10261 4288.34000 0.04369 4288.34000 0.00000 0.00000 0.00004 0.00004 
0.74929 -0.10085 4374.30000 0.04714 4374.30000 0.00000 0.00000 0.00004 0.00004 
0.75564 -0.09853 4458.23000 0.05110 4458.23000 0.00000 0.00000 0.00004 0.00004 
0.76199 -0.09554 4540.07000 0.05560 4540.07000 0.00000 0.00000 0.00004 0.00004 
0.76834 -0.09175 4619.81000 0.06066 4619.81000 0.00000 0.00000 0.00005 0.00005 
0.77469 -0.08701 4697.42000 0.06631 4697.42000 0.00000 0.00000 0.00005 0.00005 
0.78104 -0.08118 4773.03000 0.07254 4773.03000 0.00000 0.00000 0.00005 0.00005 
0.78739 -0.07406 4846.29000 0.07932 4846.29000 0.00000 0.00001 0.00005 0.00005 
0.79374 -0.06552 4918.63000 0.08671 4918.63000 0.00000 0.00001 0.00005 0.00005 
0.80009 -0.05522 4985.55000 0.09439 4985.55000 0.00000 0.00000 0.00005 0.00005 
0.80644 -0.04345 5062.67000 0.10326 5062.67000 0.00000 0.00000 0.00005 0.00005 
0.81279 -0.02712 5060.66000 0.10595 5060.66000 0.00000 0.00000 0.00005 0.00005 
0.81914 -0.00939 5038.18000 0.10691 5038.18000 0.00000 0.00000 0.00005 0.00005 
0.82549 0.00886 5020.82000 0.10788 5020.82000 0.00000 0.00000 0.00005 0.00005 
0.83184 0.02776 5002.78000 0.10836 5002.78000 0.00000 0.00000 0.00005 0.00005 
0.83819 0.04719 4985.44000 0.10843 4985.44000 0.00000 0.00000 0.00005 0.00005 
0.84454 0.06709 4968.54000 0.10802 4968.54000 0.00000 0.00001 0.00005 0.00005 
0.85089 0.08734 4952.16000 0.10710 4952.16000 0.00000 0.00001 0.00005 0.00005 
0.85724 0.10783 4936.32000 0.10562 4936.32000 0.00000 0.00001 0.00005 0.00005 
0.86359 0.12845 4921.05000 0.10356 4921.05000 0.00000 0.00001 0.00005 0.00005 
0.86994 0.14904 4906.38000 0.10089 4906.38000 0.00000 0.00001 0.00005 0.00005 
0.87629 0.16946 4892.33000 0.09757 4892.33000 0.00000 0.00001 0.00005 0.00005 
0.88264 0.18954 4878.93000 0.09360 4878.93000 0.00000 0.00001 0.00005 0.00005 
0.88899 0.20910 4866.21000 0.08895 4866.21000 0.00000 0.00001 0.00005 0.00005 
0.89534 0.22797 4854.19000 0.08364 4854.19000 0.00000 0.00001 0.00005 0.00005 
0.90169 0.24595 4842.88000 0.07766 4842.88000 0.00000 0.00001 0.00004 0.00005 
0.90804 0.26288 4832.32000 0.07102 4832.32000 0.00000 0.00001 0.00004 0.00005 
0.91439 0.27854 4822.52000 0.06377 4822.52000 0.00000 0.00001 0.00004 0.00005 
0.92074 0.29278 4813.51000 0.05593 4813.51000 0.00000 0.00001 0.00004 0.00005 
0.92709 0.30541 4805.28000 0.04755 4805.28000 0.00000 0.00001 0.00004 0.00005 
0.93344 0.31630 4797.90000 0.03870 4797.90000 0.00000 0.00001 0.00004 0.00005 
0.93979 0.32527 4791.27000 0.02942 4791.27000 0.00000 0.00001 0.00004 0.00005 
0.94614 0.33226 4785.74000 0.01981 4785.74000 0.00000 0.00001 0.00004 0.00005 
0.95249 0.33705 4780.15000 0.00994 4780.15000 -0.00000 0.00002 0.00004 0.00005 
0.95884 0.34002 4778.77000 -0.00009 4778.77000 0.00002 0.00004 0.00004 0.00006 
0.96519 0.33130 4701.58000 -0.00988 4701.58000 0.00003 0.00004 0.00005 0.00007 
0.97154 0.32005 4621.38000 -0.01835 4621.38000 -0.00002 -0.00001 0.00004 0.00004 
0.97789 0.30715 4543.08000 -0.02543 4543.08000 -0.00000 0.00001 0.00005 0.00005 
0.98424 0.29286 4465.14000 -0.03106 4465.14000 -0.00000 0.00001 0.00005 0.00005 
0.99059 0.27758 4387.75000 -0.03524 4387.75000 0.00000 0.00001 0.00005 0.00005 
0.99694 0.26166 4310.66000 -0.03798 4310.66000 0.00000 0.00001 0.00005 0.00005 
1.00329 0.24545 4233.80000 -0.03931 4233.80000 0.00000 0.00001 0.00004 0.00005 
1.00964 0.22926 4157.06000 -0.03928 4157.06000 0.00000 0.00001 0.00004 0.00004 
