Time(s) Force[Z](Spherical:10)-ArfadaCaso3.iaa(N) Force[Y](Spherical:10)-ArfadaCaso3.iaa(N) Force[X](Spherical:10)-ArfadaCaso3.iaa(N) Force(Spherical:10)-ArfadaCaso3.iaa(N) Moment[Z](Spherical:10)-ArfadaCaso3.iaa(N.mm) Moment[Y](Spherical:10)-ArfadaCaso3.iaa(N.mm) Moment[X](Spherical:10)-ArfadaCaso3.iaa(N.mm) Moment(Spherical:10)-ArfadaCaso3.iaa(N.mm) 
0.00000 -1828.44274 -408.91061 3708.92863 4155.31000 -0.00005 0.00016 0.00004 0.00017 
0.00635 -1862.20769 -416.45756 3777.37886 4232.00000 0.00000 -0.00000 0.00000 0.00000 
0.01270 -1896.10446 -424.01413 3845.90204 4308.82000 0.00000 -0.00000 0.00000 0.00000 
0.01905 -1930.25830 -431.58718 3914.54524 4385.87000 0.00000 -0.00000 0.00000 0.00000 
0.02540 -1964.79734 -439.18287 3983.34810 4463.22000 0.00000 -0.00000 0.00000 0.00000 
0.03175 -1999.91804 -446.82130 4052.47583 4541.13000 0.00000 -0.00000 0.00000 0.00000 
0.03810 -2035.63652 -454.48104 4121.71611 4619.41000 0.00000 -0.00000 0.00000 0.00000 
0.04445 -2072.72827 -462.30897 4192.38231 4699.57000 0.00000 -0.00000 0.00000 0.00000 
0.05080 -2109.13790 -469.81974 4260.05405 4776.74000 0.00000 -0.00000 0.00000 0.00000 
0.05715 -2112.77224 -469.85503 4259.81727 4778.14000 0.00000 -0.00000 0.00000 0.00000 
0.06350 -2118.91725 -470.28143 4263.00730 4783.74000 0.00000 -0.00000 -0.00000 0.00000 
0.06985 -2125.67794 -470.67927 4265.82138 4789.29000 0.00000 -0.00000 0.00000 0.00000 
0.07620 -2133.55854 -471.16282 4269.29789 4795.93000 0.00000 -0.00000 0.00000 0.00000 
0.08255 -2142.39662 -471.69870 4273.13751 4803.34000 0.00000 -0.00000 -0.00000 0.00000 
0.08890 -2152.21234 -472.29435 4277.41091 4811.58000 0.00000 -0.00000 -0.00000 0.00000 
0.09525 -2162.97201 -472.94565 4282.08470 4820.62000 0.00000 -0.00000 -0.00000 0.00000 
0.10160 -2174.65438 -473.65159 4287.15377 4830.44000 0.00000 -0.00000 -0.00000 0.00000 
0.10795 -2187.23203 -474.41013 4292.60439 4841.02000 0.00000 -0.00000 -0.00000 0.00000 
0.11430 -2200.67673 -475.21941 4298.42477 4852.35000 0.00000 -0.00000 0.00000 0.00001 
0.12065 -2214.95801 -476.07744 4304.60215 4864.39000 0.00000 -0.00000 -0.00000 0.00000 
0.12700 -2230.04362 -476.98217 4311.12385 4877.13000 0.00000 -0.00000 -0.00000 0.00000 
0.13335 -2245.89947 -477.93150 4317.97703 4890.54000 0.00000 -0.00000 -0.00000 0.00000 
0.13970 -2262.48975 -478.92327 4325.14889 4904.60000 0.00000 -0.00000 0.00000 0.00000 
0.14605 -2279.77693 -479.95533 4332.62671 4919.29000 0.00000 -0.00000 -0.00000 0.00000 
0.15240 -2297.72180 -481.02544 4340.39783 4934.57000 0.00000 -0.00000 -0.00000 0.00000 
0.15875 -2316.28381 -482.13144 4348.45032 4950.42000 0.00000 -0.00000 0.00000 0.00000 
0.16510 -2335.41921 -483.27078 4356.76936 4966.81000 0.00000 -0.00000 -0.00000 0.00000 
0.17145 -2355.09096 -484.44262 4365.35577 4983.72000 0.00000 -0.00000 -0.00000 0.00000 
0.17780 -2375.22118 -485.63802 4374.13786 5001.06000 0.00000 -0.00000 -0.00000 0.00000 
0.18415 -2395.90977 -486.88461 4383.37364 5019.10000 -0.00000 -0.00000 -0.00000 0.00000 
0.19050 -2416.45951 -488.04860 4391.86836 5036.46000 -0.00000 -0.00000 -0.00000 0.00000 
0.19685 -2439.62934 -489.69339 4404.70081 5058.95000 -0.00000 -0.00000 -0.00000 0.00000 
0.20320 -2453.01178 -489.34338 4399.61842 5060.96000 -0.00000 -0.00000 -0.00000 0.00000 
0.20955 -2427.83784 -481.34412 4325.84134 4983.87000 -0.00000 -0.00000 -0.00000 0.00000 
0.21590 -2407.17705 -474.34149 4261.13986 4916.99000 -0.00000 -0.00000 -0.00000 0.00000 
0.22225 -2383.33753 -466.82875 4191.98541 4844.68000 -0.00000 -0.00000 -0.00000 0.00000 
0.22860 -2358.44959 -459.24475 4122.33223 4771.46000 -0.00000 -0.00000 -0.00000 0.00000 
0.23495 -2331.74860 -451.45490 4050.98010 4695.88000 -0.00000 -0.00000 -0.00000 0.00000 
0.24130 -2303.35841 -443.49607 3978.26576 4618.31000 -0.00000 -0.00000 -0.00000 0.00000 
0.24765 -2273.17350 -435.35786 3904.09873 4538.59000 -0.00000 -0.00000 -0.00000 0.00000 
0.25400 -2241.18498 -427.04608 3828.53148 4456.79000 -0.00000 -0.00000 -0.00000 0.00000 
0.26035 -2207.38303 -418.56399 3751.59099 4372.89000 -0.00000 -0.00000 -0.00000 0.00000 
0.26670 -2171.78828 -409.91841 3673.33416 4286.97000 -0.00000 0.00000 -0.00000 0.00001 
0.27305 -2134.41796 -401.11349 3593.79175 4199.04000 -0.00000 -0.00000 -0.00000 0.00000 
0.27940 -2095.39223 -392.17082 3513.14912 4109.34000 -0.00000 -0.00000 -0.00000 0.00000 
0.28575 -2054.48502 -383.04559 3430.99508 4017.38000 -0.00000 -0.00000 -0.00000 0.00000 
0.29210 -2012.97441 -373.97169 3349.41380 3925.62000 -0.00000 -0.00000 -0.00000 0.00000 
0.29845 -1966.07859 -364.05670 3260.40071 3824.69000 -0.00000 -0.00000 -0.00000 0.00000 
0.30480 -1934.86302 -357.18973 3198.77225 3755.45000 -0.00000 -0.00000 -0.00000 0.00000 
0.31115 -1943.34683 -357.75704 3203.79295 3764.16000 -0.00000 -0.00000 -0.00000 0.00000 
0.31750 -1944.51444 -357.05872 3197.54307 3759.38000 -0.00000 -0.00000 0.00000 0.00000 
0.32385 -1947.43502 -356.75997 3194.92760 3758.64000 -0.00000 -0.00000 0.00000 0.00000 
0.33020 -1949.55795 -356.38651 3191.69216 3756.95000 -0.00000 -0.00000 0.00000 0.00000 
0.33655 -1951.62809 -356.06973 3189.00680 3755.72000 -0.00000 -0.00000 0.00000 0.00000 
0.34290 -1953.45991 -355.77085 3186.51802 3754.53000 -0.00000 -0.00000 0.00000 0.00000 
0.34925 -1955.12678 -355.49874 3184.29942 3753.49000 -0.00000 -0.00000 0.00000 0.00000 
0.35560 -1956.62826 -355.24912 3182.30695 3752.56000 -0.00000 -0.00000 0.00000 0.00000 
0.36195 -1957.98282 -355.02141 3180.53021 3751.73000 -0.00000 -0.00000 0.00000 0.00000 
0.36829 -1959.20223 -354.81407 3178.95053 3751.01000 -0.00000 -0.00000 0.00000 0.00000 
0.37465 -1960.29865 -354.62590 3177.55247 3750.38000 -0.00000 -0.00000 0.00000 0.00000 
0.38099 -1961.28281 -354.45567 3176.32066 3749.84000 -0.00000 -0.00000 0.00000 0.00000 
0.38734 -1962.16450 -354.30222 3175.24060 3749.37000 -0.00000 -0.00000 0.00000 0.00000 
0.39370 -1962.95266 -354.16444 3174.29858 3748.97000 -0.00000 0.00000 -0.00000 0.00000 
0.40004 -1963.65505 -354.04124 3173.48122 3748.64000 -0.00000 -0.00000 0.00000 0.00000 
0.40640 -1964.27957 -353.93175 3172.77745 3748.36000 -0.00000 -0.00000 0.00000 0.00000 
0.41274 -1964.82978 -353.83450 3172.17121 3748.12000 -0.00000 -0.00000 0.00000 0.00000 
0.41909 -1965.32191 -353.75053 3171.66888 3747.95000 -0.00000 -0.00000 0.00000 0.00000 
0.42545 -1965.72102 -353.67183 3171.19621 3747.75000 0.00000 -0.00000 0.00000 0.00000 
0.43179 -1966.18139 -353.62463 3170.98609 3747.81000 -0.00000 -0.00000 0.00000 0.00000 
0.43815 -1966.14373 -353.50698 3170.12249 3747.05000 -0.00000 -0.00000 0.00000 0.00000 
0.44449 -1967.72264 -353.69788 3172.00228 3749.48000 -0.00000 -0.00000 -0.00000 0.00000 
0.45084 -1963.00986 -352.77492 3163.86767 3740.04000 0.00000 -0.00000 0.00000 0.00000 
0.45719 -1986.43400 -356.92397 3201.19581 3784.31000 -0.00000 -0.00000 0.00000 0.00000 
0.46354 -2044.84002 -367.37121 3294.98908 3895.29000 -0.00000 -0.00000 0.00000 0.00000 
0.46989 -2096.19821 -376.56285 3377.50171 3992.91000 -0.00000 -0.00000 0.00000 0.00000 
0.47624 -2149.50948 -386.11472 3463.22760 4094.32000 -0.00000 -0.00000 0.00000 0.00000 
0.48259 -2202.03372 -395.53317 3547.74147 4194.27000 -0.00000 -0.00000 0.00000 0.00000 
0.48894 -2255.63158 -405.15092 3634.03030 4296.30000 -0.00000 -0.00000 0.00000 0.00000 
0.49529 -2305.56407 -414.11511 3714.44776 4391.38000 -0.00000 0.00000 0.00000 0.00000 
0.50164 -2368.92863 -425.49489 3816.52629 4512.07000 -0.00000 0.00000 0.00000 0.00000 
0.50799 -2368.92748 -425.49433 3816.52737 4512.07000 -0.00000 0.00000 0.00000 0.00000 
0.51434 -2305.56070 -414.11344 3714.45103 4391.38000 -0.00000 0.00000 0.00000 0.00000 
0.52069 -2255.62610 -405.14815 3634.03575 4296.30000 -0.00000 -0.00000 0.00000 0.00000 
0.52704 -2202.02626 -395.52929 3547.74911 4194.27000 -0.00000 0.00000 0.00000 0.00000 
0.53339 -2149.50011 -386.10970 3463.23741 4094.32000 -0.00000 0.00000 0.00000 0.00000 
0.53974 -2096.18704 -376.55666 3377.51369 3992.92000 -0.00000 0.00000 0.00000 0.00000 
0.54609 -2044.82711 -367.36379 3295.00321 3895.29000 -0.00000 0.00000 0.00000 0.00000 
0.55244 -1986.41949 -356.91526 3201.21209 3784.31000 -0.00000 0.00000 0.00000 0.00000 
0.55879 -1962.99359 -352.76479 3163.88601 3740.05000 0.00000 0.00000 0.00000 0.00000 
0.56514 -1967.70436 -353.68615 3172.02260 3749.49000 -0.00000 0.00000 0.00000 0.00000 
0.57149 -1966.12341 -353.49351 3170.14474 3747.05000 -0.00000 0.00000 0.00000 0.00000 
0.57784 -1966.15893 -353.60924 3171.01023 3747.82000 -0.00000 0.00000 0.00000 0.00000 
0.58419 -1965.69632 -353.65433 3171.22215 3747.76000 0.00000 0.00000 0.00000 0.00000 
0.59054 -1965.29489 -353.73069 3171.69656 3747.96000 -0.00000 0.00000 0.00000 0.00000 
0.59689 -1964.80034 -353.81208 3172.20052 3748.13000 0.00000 -0.00000 0.00000 0.00000 
0.60324 -1964.24762 -353.90648 3172.80831 3748.36000 0.00000 -0.00000 -0.00000 0.00000 
0.60959 -1963.62049 -354.01284 3173.51349 3748.64000 0.00000 -0.00000 0.00000 0.00000 
0.61594 -1962.91540 -354.13260 3174.33212 3748.98000 0.00000 -0.00000 0.00000 0.00000 
0.62229 -1962.12446 -354.26659 3175.27526 3749.37000 0.00000 0.00000 -0.00000 0.00000 
0.62864 -1961.23990 -354.41591 3176.35628 3749.84000 0.00000 -0.00000 0.00000 0.00000 
0.63499 -1960.25283 -354.58161 3177.58884 3750.39000 0.00000 -0.00000 -0.00000 0.00000 
0.64134 -1959.15343 -354.76485 3178.98743 3751.01000 0.00000 -0.00000 0.00000 0.00000 
0.64769 -1957.93103 -354.96682 3180.56741 3751.73000 -0.00000 -0.00000 -0.00000 0.00000 
0.65404 -1956.57346 -355.18872 3182.34418 3752.55000 0.00000 -0.00000 0.00000 0.00000 
0.66039 -1955.06900 -355.43205 3184.33640 3753.48000 0.00000 -0.00000 0.00000 0.00000 
0.66674 -1953.39922 -355.69736 3186.55444 3754.52000 0.00000 -0.00000 0.00000 0.00000 
0.67309 -1951.56458 -355.98895 3189.04231 3755.71000 0.00000 -0.00000 0.00000 0.00000 
0.67944 -1949.49177 -356.29793 3191.72641 3756.94000 -0.00000 0.00000 -0.00000 0.00000 
0.68579 -1947.36637 -356.66306 3194.96020 3758.62000 0.00000 -0.00000 0.00000 0.00000 
0.69214 -1944.44361 -356.95296 3197.57362 3759.36000 -0.00000 -0.00000 -0.00000 0.00000 
0.69849 -1943.27405 -357.64189 3203.82100 3764.13000 0.00000 -0.00000 0.00000 0.00000 
0.70484 -1934.78899 -357.06481 3198.79743 3755.42000 0.00000 -0.00000 0.00000 0.00000 
0.71119 -1966.00191 -363.92063 3260.42217 3824.65000 0.00000 -0.00000 0.00000 0.00000 
0.71754 -2012.89450 -373.82333 3349.43092 3925.58000 0.00000 -0.00000 -0.00000 0.00000 
0.72389 -2054.40223 -382.88415 3431.00742 4017.33000 0.00000 0.00000 0.00000 0.00000 
0.73024 -2095.30674 -391.99538 3513.15616 4109.29000 0.00000 -0.00001 0.00000 0.00001 
0.73659 -2134.33010 -400.92310 3593.79298 4198.98000 0.00000 -0.00000 0.00000 0.00000 
0.74294 -2171.69846 -409.71209 3673.32906 4286.90000 0.00000 -0.00000 0.00000 0.00000 
0.74929 -2207.29177 -418.34072 3751.57901 4372.81000 0.00000 -0.00000 0.00000 0.00000 
0.75564 -2241.09294 -426.80482 3828.51206 4456.70000 0.00000 -0.00000 0.00000 0.00000 
0.76199 -2273.08148 -435.09751 3904.07132 4538.50000 0.00000 -0.00000 0.00000 0.00000 
0.76834 -2303.26738 -443.21554 3978.22980 4618.20000 0.00000 -0.00000 0.00000 0.00000 
0.77469 -2331.65974 -451.15309 4050.93505 4695.77000 0.00000 -0.00000 0.00000 0.00000 
0.78104 -2358.36428 -458.92055 4122.27757 4771.34000 0.00000 -0.00000 0.00000 0.00000 
0.78739 -2383.25745 -466.48109 4191.92064 4844.56000 0.00000 -0.00000 0.00000 0.00000 
0.79374 -2407.10412 -473.96932 4261.06454 4916.86000 0.00000 -0.00000 0.00000 0.00000 
0.80009 -2427.77443 -480.94659 4325.75509 4983.73000 0.00000 -0.00000 0.00000 0.00000 
0.80644 -2452.96018 -488.91926 4399.52080 5060.81000 0.00000 -0.00000 0.00000 0.00000 
0.81279 -2439.59524 -489.24595 4404.59283 5058.80000 0.00000 -0.00000 0.00000 0.00000 
0.81914 -2416.44675 -487.57936 4391.75031 5036.31000 0.00000 -0.00000 0.00000 0.00000 
0.82549 -2395.92164 -486.39440 4383.24558 5018.95000 0.00000 -0.00000 -0.00000 0.00000 
0.83184 -2375.26126 -485.12837 4374.00007 5000.91000 0.00000 -0.00000 -0.00000 0.00000 
0.83819 -2355.16285 -483.91542 4365.20863 4983.57000 0.00000 -0.00000 -0.00000 0.00000 
0.84454 -2335.52652 -482.72837 4356.61336 4966.67000 0.00000 -0.00000 -0.00000 0.00000 
0.85089 -2316.43005 -481.57663 4348.28607 4950.29000 0.00000 -0.00000 -0.00000 0.00000 
0.85724 -2297.91033 -480.46153 4340.22606 4934.45000 0.00000 -0.00000 -0.00000 0.00000 
0.86359 -2280.01086 -479.38605 4332.44822 4919.18000 0.00000 -0.00000 -0.00000 0.00000 
0.86994 -2262.77182 -478.35283 4324.96456 4904.52000 0.00000 -0.00000 -0.00000 0.00000 
0.87629 -2246.23198 -477.36447 4317.78779 4890.47000 0.00000 -0.00000 -0.00000 0.00000 
0.88264 -2230.42831 -476.42351 4310.93068 4877.08000 0.00000 -0.00000 -0.00000 0.00000 
0.88899 -2215.39600 -475.53238 4304.40602 4864.36000 0.00000 -0.00000 -0.00000 0.00000 
0.89534 -2201.16840 -474.69340 4298.22664 4852.34000 0.00000 -0.00000 -0.00000 0.00000 
0.90169 -2187.77699 -473.90870 4292.40523 4841.04000 0.00000 -0.00000 -0.00000 0.00000 
0.90804 -2175.25139 -473.18030 4286.95446 4830.49000 0.00000 -0.00000 -0.00000 0.00000 
0.91439 -2163.61897 -472.50993 4281.88608 4820.69000 0.00000 -0.00000 -0.00000 0.00000 
0.92074 -2152.90626 -471.89939 4277.21373 4811.68000 -0.00000 -0.00001 -0.00001 0.00001 
0.92709 -2143.13369 -471.34934 4272.94245 4803.46000 0.00000 -0.00001 -0.00001 0.00001 
0.93344 -2134.33411 -470.86340 4269.10553 4796.08000 0.00000 -0.00001 -0.00001 0.00001 
0.93979 -2126.48664 -470.43356 4265.63221 4789.45000 0.00000 -0.00001 -0.00001 0.00001 
0.94614 -2119.75309 -470.09247 4262.82172 4783.93000 0.00000 -0.00000 -0.00001 0.00001 
0.95249 -2113.62864 -469.72513 4259.63560 4778.34000 -0.00000 -0.00000 -0.00001 0.00001 
0.95884 -2110.00821 -469.75030 4259.87645 4776.96000 0.00001 -0.00000 -0.00000 0.00001 
0.96519 -2073.59848 -462.30075 4192.21088 4699.80000 0.00002 -0.00000 0.00000 0.00002 
0.97154 -2036.49920 -454.53238 4121.55089 4619.64000 -0.00001 -0.00000 -0.00000 0.00001 
0.97789 -2000.76659 -446.92973 4052.31672 4541.37000 -0.00000 -0.00000 0.00000 0.00000 
0.98424 -1965.62564 -439.34524 3983.19499 4463.47000 -0.00000 -0.00000 0.00001 0.00001 
0.99059 -1931.06094 -431.79980 3914.39799 4386.11000 -0.00000 -0.00000 0.00001 0.00001 
0.99694 -1896.87676 -424.27291 3845.76050 4309.06000 -0.00000 -0.00000 0.00001 0.00001 
1.00329 -1862.94574 -416.75815 3777.24288 4232.24000 -0.00000 -0.00000 0.00001 0.00001 
1.00964 -1829.14434 -409.24869 3708.79990 4155.53000 -0.00000 -0.00000 0.00001 0.00001 
