Time(s) Force[Z](Spherical:10)-BalanceoCaso3.iaa(N) Force[Y](Spherical:10)-BalanceoCaso3.iaa(N) Force[X](Spherical:10)-BalanceoCaso3.iaa(N) Force(Spherical:10)-BalanceoCaso3.iaa(N) Moment[Z](Spherical:10)-BalanceoCaso3.iaa(N.mm) Moment[Y](Spherical:10)-BalanceoCaso3.iaa(N.mm) Moment[X](Spherical:10)-BalanceoCaso3.iaa(N.mm) Moment(Spherical:10)-BalanceoCaso3.iaa(N.mm) 
0.00000 -2395.30255 -428.21464 3849.60561 4554.15000 0.00834 0.00049 0.01771 0.01958 
0.00910 -2506.43076 -448.06661 4028.21819 4765.45000 -0.00000 -0.00000 0.00000 0.00000 
0.01820 -2617.41390 -467.79858 4206.68200 4976.53000 -0.00000 -0.00000 0.00000 0.00000 
0.02731 -2728.08044 -487.27129 4384.81754 5187.15000 -0.00000 -0.00000 0.00000 0.00000 
0.03641 -2838.17744 -506.31552 4562.32893 5396.89000 0.00000 -0.00000 0.00000 0.00000 
0.04551 -2947.56108 -524.76631 4739.10945 5605.59000 0.00000 -0.00000 0.00000 0.00000 
0.05461 -3055.49108 -542.33800 4914.10682 5811.94000 0.00000 -0.00000 0.00000 0.00000 
0.06371 -3163.26391 -559.09239 5089.55782 6018.51000 0.00000 -0.00000 0.00000 0.00000 
0.07282 -3264.38779 -573.70381 5255.17910 6213.07000 0.00000 -0.00000 0.00000 0.00000 
0.08192 -3253.74276 -567.67989 5241.76252 6195.58000 0.00000 -0.00000 0.00000 0.00000 
0.09102 -3245.54810 -561.19102 5233.10287 6183.36000 0.00000 -0.00000 0.00000 0.00000 
0.10012 -3234.65950 -553.35197 5220.90741 6166.61000 0.00000 -0.00000 0.00000 0.00000 
0.10922 -3222.47182 -544.42173 5207.41610 6148.00000 0.00000 -0.00000 0.00000 0.00000 
0.11832 -3208.63491 -534.35964 5192.05425 6126.85000 0.00000 -0.00000 0.00000 0.00000 
0.12743 -3193.26757 -523.20772 5175.00284 6103.39000 0.00000 -0.00000 0.00000 0.00000 
0.13653 -3176.36601 -510.98944 5156.24364 6077.60000 0.00000 -0.00000 0.00000 0.00000 
0.14563 -3157.96166 -497.73633 5135.81432 6049.55000 -0.00000 -0.00000 0.00000 0.00000 
0.15473 -3138.07897 -483.48076 5113.74014 6019.27000 0.00000 -0.00000 -0.00000 0.00001 
0.16383 -3116.74645 -468.25770 5090.05200 5986.82000 -0.00000 -0.00000 0.00000 0.00000 
0.17294 -3093.99366 -452.10410 5064.78149 5952.24000 0.00000 -0.00000 -0.00000 0.00000 
0.18204 -3069.85182 -435.05881 5037.96203 5915.60000 0.00001 -0.00000 -0.00000 0.00001 
0.19114 -3044.35354 -417.16246 5009.62844 5876.95000 -0.00000 -0.00000 -0.00000 0.00000 
0.20024 -3017.53265 -398.45730 4979.81674 5836.34000 -0.00000 -0.00000 -0.00000 0.00000 
0.20934 -2989.42439 -378.98703 4948.56449 5793.84000 -0.00000 -0.00000 -0.00000 0.00000 
0.21845 -2960.06421 -358.79655 4915.90891 5749.51000 -0.00000 -0.00000 -0.00000 0.00000 
0.22755 -2929.49160 -337.93230 4881.89328 5703.42000 0.00000 -0.00000 -0.00000 0.00000 
0.23665 -2897.73539 -316.44034 4846.54251 5655.61000 -0.00000 -0.00000 -0.00000 0.00000 
0.24575 -2864.86744 -294.37217 4809.95300 5606.23000 -0.00000 -0.00000 -0.00000 0.00000 
0.25485 -2830.80403 -271.76407 4771.95928 5555.08000 -0.00000 -0.00000 -0.00000 0.00000 
0.26395 -2796.03775 -248.70746 4733.36763 5503.13000 -0.00000 -0.00000 -0.00000 0.00000 
0.27306 -2758.93956 -225.10786 4691.38979 5447.16000 -0.00000 -0.00000 -0.00000 0.00000 
0.28216 -2725.69435 -201.49916 4656.53405 5399.38000 -0.00000 -0.00000 -0.00000 0.00000 
0.29126 -2673.02721 -176.27901 4588.93578 5313.61000 -0.00000 -0.00000 -0.00000 0.00000 
0.30036 -2540.19667 -146.47569 4383.24270 5068.22000 -0.00000 -0.00000 -0.00000 0.00000 
0.30946 -2420.42147 -118.84875 4198.83644 4847.97000 -0.00000 -0.00000 -0.00000 0.00000 
0.31857 -2301.71887 -92.75454 4014.97495 4628.88000 -0.00000 -0.00000 -0.00000 0.00000 
0.32767 -2187.60253 -68.43282 3837.66176 4417.91000 -0.00000 -0.00000 -0.00000 0.00000 
0.33677 -2077.44056 -45.88633 3665.74024 4213.73000 -0.00000 -0.00000 0.00000 0.00000 
0.34587 -1971.63642 -25.13566 3499.88208 4017.11000 -0.00000 0.00000 0.00000 0.00000 
0.35497 -1870.26485 -6.16803 3340.20472 3828.17000 0.00000 0.00000 0.00000 0.00000 
0.36408 -1773.43365 11.04831 3186.90395 3647.13000 -0.00000 0.00000 0.00000 0.00000 
0.37318 -1681.18563 26.56278 3040.07781 3474.07000 -0.00000 0.00000 0.00000 0.00000 
0.38228 -1593.54146 40.43903 2899.80057 3309.06000 -0.00000 0.00000 0.00000 0.00000 
0.39138 -1510.43216 52.75010 2765.99697 3151.97000 0.00000 0.00000 0.00000 0.00000 
0.40048 -1431.92850 63.58290 2638.85903 3003.00000 -0.00000 0.00000 0.00000 0.00000 
0.40959 -1357.41278 72.99885 2517.31729 2860.91000 -0.00000 0.00000 0.00000 0.00000 
0.41869 -1288.60720 81.19136 2404.65091 2729.37000 -0.00000 0.00000 0.00000 0.00000 
0.42779 -1218.51430 87.79444 2287.85690 2593.60000 -0.00000 0.00000 0.00000 0.00000 
0.43689 -1173.52619 94.89861 2216.69080 2509.96000 -0.00000 0.00000 0.00000 0.00000 
0.44599 -1182.57875 105.75263 2246.94979 2541.35000 -0.00000 0.00000 0.00000 0.00000 
0.45510 -1183.45750 115.64978 2261.52413 2555.08000 -0.00000 0.00000 0.00000 0.00000 
0.46420 -1186.61098 125.48605 2280.20410 2573.54000 0.00000 0.00000 0.00000 0.00000 
0.47330 -1189.26657 134.99387 2297.68413 2590.74000 0.00000 0.00000 0.00000 0.00000 
0.48240 -1192.12379 144.23888 2315.28546 2608.16000 -0.00000 0.00000 0.00000 0.00000 
0.49150 -1194.97156 153.19078 2332.58014 2625.33000 0.00000 0.00000 0.00000 0.00000 
0.50060 -1197.83928 161.84538 2349.60323 2642.28000 -0.00000 0.00000 0.00000 0.00000 
0.50971 -1200.69437 170.19044 2366.26869 2658.92000 -0.00000 0.00000 0.00000 0.00000 
0.51881 -1203.52176 178.21529 2382.52388 2675.19000 -0.00000 0.00000 0.00000 0.00000 
0.52791 -1206.30298 185.90839 2398.30899 2691.02000 0.00000 0.00000 0.00000 0.00000 
0.53701 -1209.02165 193.25808 2413.56796 2706.36000 0.00000 0.00000 0.00000 0.00000 
0.54611 -1211.66202 200.25259 2428.24584 2721.14000 0.00000 0.00000 0.00000 0.00000 
0.55522 -1214.20935 206.88012 2442.28971 2735.30000 -0.00000 0.00000 0.00000 0.00000 
0.56432 -1216.64986 213.12903 2455.64880 2748.79000 -0.00000 0.00000 0.00000 0.00000 
0.57342 -1218.97045 218.98781 2468.27414 2761.56000 -0.00000 0.00000 0.00000 0.00000 
0.58252 -1221.15985 224.44547 2480.12106 2773.55000 -0.00000 0.00000 0.00000 0.00000 
0.59162 -1223.20433 229.49082 2491.14069 2784.72000 -0.00000 0.00000 0.00000 0.00000 
0.60073 -1225.10359 234.11552 2501.31250 2795.04000 -0.00000 0.00000 0.00000 0.00001 
0.60983 -1226.81201 238.30302 2510.52457 2804.39000 -0.00000 0.00000 0.00000 0.00000 
0.61893 -1228.45579 242.07068 2519.01796 2813.03000 -0.00000 0.00000 0.00000 0.00000 
0.62803 -1229.52967 245.31187 2525.74019 2819.80000 -0.00000 0.00000 0.00000 0.00000 
0.63713 -1231.87190 248.38872 2534.45508 2828.90000 -0.00000 0.00000 0.00000 0.00000 
0.64624 -1228.63418 249.91108 2531.05503 2824.58000 -0.00001 0.00000 0.00000 0.00001 
0.65534 -1249.32475 255.89516 2576.34339 2874.69000 -0.00000 0.00000 0.00000 0.00000 
0.66444 -1299.49847 267.58975 2681.93873 2992.17000 -0.00000 0.00000 0.00000 0.00000 
0.67354 -1343.24483 277.67639 2773.84349 3094.45000 -0.00000 0.00000 0.00000 0.00000 
0.68264 -1388.40621 287.78780 2868.26792 3199.60000 -0.00000 0.00000 0.00000 0.00000 
0.69175 -1432.79128 297.50157 2960.73232 3302.63000 -0.00000 0.00000 0.00000 0.00000 
0.70085 -1478.06762 307.20225 3054.73979 3407.42000 -0.00000 0.00000 0.00000 0.00000 
0.70995 -1520.27521 316.11359 3142.17673 3504.92000 -0.00000 0.00000 0.00000 0.00000 
0.71905 -1573.90442 327.30341 3253.07425 3628.61000 -0.00000 0.00000 0.00000 0.00000 
0.72815 -1573.90659 327.30471 3253.07949 3628.61000 -0.00000 -0.00000 0.00000 0.00000 
0.73725 -1520.28176 316.11745 3142.19237 3504.93000 -0.00000 0.00000 0.00000 0.00000 
0.74636 -1478.07845 307.20860 3054.76539 3407.45000 -0.00000 0.00000 0.00000 0.00000 
0.75546 -1432.80608 297.51029 2960.76710 3302.66000 -0.00000 0.00000 0.00000 0.00000 
0.76456 -1388.42452 287.79876 2868.31070 3199.65000 -0.00000 0.00000 0.00000 0.00000 
0.77366 -1343.26599 277.68940 2773.89275 3094.50000 -0.00000 0.00000 0.00000 0.00000 
0.78276 -1299.52170 267.60461 2681.99267 2992.23000 -0.00000 0.00000 -0.00000 0.00000 
0.79187 -1249.34920 255.91165 2576.40006 2874.75000 0.00001 -0.00000 -0.00001 0.00002 
0.80097 -1228.65872 249.92904 2531.11225 2824.64000 -0.00000 0.00000 0.00000 0.00000 
0.81007 -1231.89540 248.40805 2534.51082 2828.96000 0.00001 0.00000 -0.00000 0.00001 
0.81917 -1229.55131 245.33245 2525.79282 2819.86000 -0.00000 0.00000 0.00000 0.00000 
0.82827 -1228.47484 242.09245 2519.06614 2813.09000 -0.00000 0.00000 0.00000 0.00000 
0.83737 -1226.82795 238.32596 2510.56738 2804.43000 -0.00000 0.00000 0.00000 0.00000 
0.84648 -1225.11605 234.13968 2501.34939 2795.08000 -0.00000 0.00000 0.00000 0.00000 
0.85558 -1223.21313 229.51629 2491.17151 2784.76000 -0.00000 0.00000 0.00000 0.00000 
0.86468 -1221.16497 224.47239 2480.14598 2773.58000 -0.00000 0.00000 0.00000 0.00000 
0.87378 -1218.97198 219.01636 2468.29362 2761.58000 -0.00000 0.00000 0.00000 0.00000 
0.88289 -1216.64800 213.15943 2455.66351 2748.81000 -0.00000 0.00000 0.00000 0.00000 
0.89199 -1214.20435 206.91262 2442.30043 2735.31000 -0.00000 0.00000 0.00000 0.00000 
0.90109 -1211.65416 200.28746 2428.25343 2721.15000 -0.00000 0.00000 0.00000 0.00000 
0.91019 -1209.01120 193.29561 2413.57327 2706.36000 -0.00000 0.00000 0.00000 0.00000 
0.91929 -1206.29020 185.94889 2398.31284 2691.03000 -0.00000 0.00000 0.00000 0.00000 
0.92839 -1203.50686 178.25910 2382.52701 2675.19000 -0.00000 0.00000 0.00000 0.00000 
0.93750 -1200.67752 170.23791 2366.27173 2658.92000 -0.00000 0.00000 0.00000 0.00000 
0.94660 -1197.82061 161.89689 2349.60672 2642.28000 -0.00000 0.00000 0.00000 0.00000 
0.95570 -1194.95114 153.24674 2332.58450 2625.33000 -0.00000 0.00000 0.00000 0.00000 
0.96480 -1192.10166 144.29975 2315.29100 2608.16000 -0.00000 0.00000 0.00000 0.00000 
0.97390 -1189.24274 135.06012 2297.69106 2590.74000 0.00000 0.00000 0.00000 0.00000 
0.98301 -1186.58543 125.55822 2280.21255 2573.54000 0.00000 0.00000 0.00000 0.00000 
0.99211 -1183.43022 115.72847 2261.53416 2555.08000 0.00000 0.00000 0.00000 0.00000 
1.00121 -1182.54972 105.83849 2246.96140 2541.35000 0.00000 0.00000 0.00000 0.00001 
1.01031 -1173.49556 94.99228 2216.70392 2509.96000 0.00000 0.00000 0.00000 0.00000 
1.01941 -1218.48129 87.89725 2287.87157 2593.60000 0.00000 0.00000 0.00000 0.00000 
1.02851 -1288.57147 81.30450 2404.66708 2729.37000 -0.00000 0.00000 0.00000 0.00000 
1.03762 -1357.37449 73.12339 2517.33483 2860.91000 0.00000 0.00000 0.00000 0.00000 
1.04672 -1431.88782 63.72009 2638.87781 3003.01000 0.00000 0.00000 0.00000 0.00000 
1.05582 -1510.38946 52.90128 2766.01685 3151.97000 0.00000 0.00000 0.00000 0.00000 
1.06492 -1593.49734 40.60567 2899.82142 3309.06000 0.00000 0.00000 0.00000 0.00000 
1.07402 -1681.14095 26.74646 3040.09950 3474.07000 0.00000 0.00000 0.00000 0.00000 
1.08313 -1773.38958 11.25070 3186.92636 3647.13000 0.00000 0.00000 0.00000 0.00000 
1.09223 -1870.22295 -5.94519 3340.22775 3828.17000 0.00000 -0.00000 0.00000 0.00000 
1.10133 -1971.59870 -24.89058 3499.90564 4017.11000 0.00000 -0.00000 0.00000 0.00000 
1.11043 -2077.40954 -45.61725 3665.76430 4213.73000 0.00000 -0.00000 0.00000 0.00000 
1.11953 -2187.58133 -68.13804 3837.68630 4417.92000 0.00000 -0.00000 0.00000 0.00000 
1.12864 -2301.71126 -92.43257 4015.00001 4628.89000 0.00000 -0.00000 0.00000 0.00000 
1.13774 -2420.43192 -118.49836 4198.86208 4847.99000 0.00000 -0.00000 0.00000 0.00000 
1.14684 -2540.23046 -146.09613 4383.26905 5068.25000 0.00000 -0.00000 0.00000 0.00000 
1.15594 -2673.09019 -175.86987 4588.96302 5313.65000 0.00000 -0.00000 0.00000 0.00000 
1.16504 -2725.79406 -201.06310 4656.56231 5399.44000 0.00000 -0.00000 0.00000 0.00000 
1.17415 -2759.08306 -224.64746 4691.41925 5447.24000 0.00000 -0.00000 0.00000 0.00000 
1.18325 -2796.23202 -248.22595 4733.39853 5503.23000 0.00000 -0.00000 0.00000 0.00000 
1.19235 -2831.05606 -271.26608 4771.99185 5555.21000 0.00000 -0.00000 0.00000 0.00000 
1.20145 -2865.18379 -293.86368 4809.98746 5606.39000 0.00000 -0.00000 0.00000 0.00000 
1.21055 -2898.12183 -315.92866 4846.57903 5655.82000 0.00000 -0.00000 0.00000 0.00000 
1.21965 -2929.95271 -337.42605 4881.93195 5703.66000 0.00000 -0.00000 0.00000 0.00000 
1.22876 -2960.60291 -358.30546 4915.94974 5749.79000 0.00000 -0.00000 0.00000 0.00000 
1.23786 -2990.04154 -378.52165 4948.60734 5794.16000 0.00000 -0.00000 0.00000 0.00000 
1.24696 -3018.22669 -398.02865 4979.86132 5836.71000 0.00000 -0.00000 0.00000 0.00000 
1.25606 -3045.12024 -416.78156 5009.67431 5877.35000 0.00000 -0.00000 0.00000 0.00000 
1.26516 -3070.68419 -434.73609 5038.00858 5916.05000 0.00000 0.00000 0.00001 0.00001 
1.27427 -3094.88195 -451.84891 5064.82794 5952.73000 -0.00000 0.00001 0.00001 0.00001 
1.28337 -3117.67846 -468.07774 5090.09747 5987.33000 -0.00000 0.00001 0.00001 0.00001 
1.29247 -3139.04041 -483.38158 5113.78368 6019.80000 -0.00000 0.00000 0.00000 0.00000 
1.30157 -3158.93692 -497.72099 5135.85497 6050.09000 -0.00000 0.00000 0.00000 0.00000 
1.31067 -3177.33869 -511.05832 5156.28046 6078.15000 -0.00000 -0.00000 -0.00000 0.00000 
1.31978 -3194.22124 -523.35840 5175.03503 6103.93000 -0.00000 -0.00001 0.00000 0.00001 
1.32888 -3209.55425 -534.58717 5192.08118 6127.38000 -0.00000 -0.00001 0.00000 0.00001 
1.33798 -3223.34295 -544.71884 5207.43736 6148.50000 -0.00000 -0.00001 0.00001 0.00001 
1.34708 -3235.47069 -553.70954 5220.92282 6167.08000 -0.00000 -0.00001 0.00001 0.00002 
1.35618 -3246.29023 -561.59863 5233.11252 6183.79000 -0.00000 -0.00000 0.00000 0.00000 
1.36529 -3254.40949 -568.12636 5241.76676 6195.97000 -0.00000 -0.00000 0.00000 0.00000 
1.37439 -3264.97568 -574.17788 5255.17849 6213.42000 -0.00000 -0.00000 0.00000 0.00000 
1.38349 -3163.77127 -559.58051 5089.55327 6018.81000 -0.00000 -0.00000 0.00000 0.00000 
1.39259 -3055.92057 -542.83009 4914.09924 5812.20000 -0.00000 0.00000 0.00000 0.00000 
1.40169 -2947.91728 -525.25376 4739.09979 5605.82000 -0.00000 0.00000 0.00000 0.00000 
1.41079 -2838.46627 -506.79116 4562.31816 5397.08000 -0.00000 0.00000 0.00000 0.00000 
1.41990 -2728.30867 -487.72941 4384.80658 5187.30000 -0.00000 0.00000 0.00000 0.00000 
1.42900 -2617.58874 -468.23490 4206.67169 4976.66000 -0.00000 0.00000 0.00000 0.00000 
1.43810 -2506.55951 -448.47817 4028.20927 4765.55000 -0.00000 0.00000 0.00000 0.00000 
1.44720 -2395.39311 -428.59970 3849.59949 4554.23000 0.00000 0.00000 0.00000 0.00000 
