Time(s) Force[Z](Spherical:9)-CabeceoCaso3.iaa(N) Force[Y](Spherical:9)-CabeceoCaso3.iaa(N) Force[X](Spherical:9)-CabeceoCaso3.iaa(N) Force(Spherical:9)-CabeceoCaso3.iaa(N) Moment[Z](Spherical:9)-CabeceoCaso3.iaa(N.mm) Moment[Y](Spherical:9)-CabeceoCaso3.iaa(N.mm) Moment[X](Spherical:9)-CabeceoCaso3.iaa(N.mm) Moment(Spherical:9)-CabeceoCaso3.iaa(N.mm) 
0.00000 -4345.74727 22.23612 1340.55678 4547.87000 -0.00179 0.01768 -0.00777 0.01939 
0.01532 -4577.95620 23.42454 1412.17223 4790.87000 -0.00000 -0.00000 -0.00000 0.00000 
0.03064 -4809.47940 24.60964 1483.36941 5033.10000 -0.00000 0.00000 -0.00000 0.00000 
0.04596 -5039.61947 25.78802 1553.69088 5273.74000 -0.00000 -0.00000 -0.00000 0.00000 
0.06128 -5267.55546 26.95570 1622.60334 5511.87000 -0.00000 -0.00000 -0.00000 0.00000 
0.07660 -5492.74062 28.11013 1689.62211 5746.81000 -0.00000 0.00000 -0.00000 0.00000 
0.09192 -5713.43231 29.24263 1753.86168 5976.64000 -0.00000 0.00000 -0.00000 0.00000 
0.10724 -5932.18995 30.36657 1815.72729 6203.92000 -0.00000 -0.00000 -0.00000 0.00000 
0.12257 -6135.36491 31.41230 1870.64208 6414.28000 -0.00000 0.00000 -0.00000 0.00000 
0.13789 -6102.01585 31.24839 1851.23468 6376.73000 -0.00000 -0.00000 -0.00000 0.00000 
0.15321 -6071.40787 31.09970 1830.74655 6341.50000 -0.00000 -0.00000 -0.00000 0.00000 
0.16853 -6032.81156 30.91108 1805.99320 6297.41000 -0.00000 0.00000 -0.00000 0.00000 
0.18385 -5989.18775 30.69749 1777.95873 6247.60000 -0.00000 -0.00000 -0.00000 0.00000 
0.19917 -5939.84315 30.45516 1746.53638 6191.37000 -0.00000 0.00000 -0.00000 0.00000 
0.21449 -5885.06995 30.18537 1711.92597 6129.08000 -0.00000 0.00000 -0.00000 0.00000 
0.22981 -5824.90267 29.88804 1674.26129 6060.82000 -0.00000 -0.00000 -0.00000 0.00000 
0.24513 -5759.44872 29.56352 1633.70751 5986.75000 -0.00000 0.00000 -0.00001 0.00001 
0.26045 -5688.79816 29.21204 1590.43386 5907.01000 -0.00000 0.00000 -0.00001 0.00001 
0.27577 -5613.04582 28.83388 1544.61941 5821.77000 0.00000 0.00000 -0.00000 0.00000 
0.29109 -5532.28364 28.42934 1496.45019 5731.17000 -0.00000 -0.00001 -0.00000 0.00001 
0.30642 -5446.60088 27.99871 1446.11859 5635.38000 0.00000 0.00000 -0.00000 0.00000 
0.32174 -5356.08252 27.54231 1393.82231 5534.54000 0.00000 0.00000 -0.00000 0.00000 
0.33706 -5260.80801 27.06044 1339.76351 5428.79000 0.00000 0.00000 -0.00000 0.00000 
0.35238 -5160.85083 26.55342 1284.14819 5318.28000 0.00000 0.00000 -0.00000 0.00000 
0.36770 -5056.27515 26.02155 1227.18488 5203.13000 0.00000 0.00000 -0.00000 0.00000 
0.38302 -4947.14410 25.46515 1169.08639 5083.47000 -0.00000 0.00000 -0.00000 0.00000 
0.39834 -4833.48525 24.88441 1110.06126 4959.38000 0.00000 0.00000 -0.00000 0.00000 
0.41366 -4715.41590 24.28001 1050.34243 4831.04000 0.00000 0.00000 -0.00000 0.00000 
0.42898 -4592.67399 23.65070 990.08241 4698.24000 0.00000 0.00000 -0.00000 0.00000 
0.44430 -4466.36281 23.00228 929.73002 4562.16000 0.00000 0.00000 -0.00000 0.00000 
0.45962 -4332.45040 22.31414 868.67456 4418.73000 0.00000 0.00000 -0.00000 0.00000 
0.47494 -4205.98738 21.66395 810.11191 4283.35000 0.00000 0.00000 -0.00000 0.00000 
0.49027 -4029.07696 20.75381 743.29372 4097.12000 0.00000 -0.00000 -0.00000 0.00000 
0.50559 -3643.40509 18.76894 641.73532 3699.54000 0.00000 -0.00000 -0.00000 0.00000 
0.52091 -3279.17848 16.89476 549.63223 3324.97000 0.00000 -0.00000 0.00000 0.00000 
0.53623 -2905.78364 14.97383 461.87901 2942.30000 0.00000 -0.00000 0.00000 0.00000 
0.55155 -2531.83410 13.05058 380.25916 2560.26000 0.00000 -0.00000 -0.00000 0.00000 
0.56687 -2155.41423 11.11520 304.70594 2176.87000 0.00000 -0.00000 0.00000 0.00000 
0.58219 -1777.41643 9.17223 235.53373 1792.98000 0.00000 -0.00000 0.00000 0.00000 
0.59751 -1397.97912 7.22227 172.87493 1408.65000 0.00000 -0.00000 0.00000 0.00000 
0.61283 -1017.45556 5.26696 116.82642 1024.15000 0.00000 -0.00000 0.00000 0.00000 
0.62815 -636.15124 3.30764 67.41410 639.72200 0.00000 -0.00000 0.00000 0.00000 
0.64347 -254.45072 1.34600 24.60939 255.64200 -0.00000 -0.00000 0.00000 0.00000 
0.65879 127.38568 -0.61691 -11.69014 127.92244 -0.00000 -0.00000 0.00000 0.00000 
0.67412 508.49521 -2.57698 -41.59426 510.20000 -0.00000 -0.00000 0.00000 0.00000 
0.68944 890.08979 -4.54078 -65.43809 892.50354 -0.00000 -0.00000 0.00000 0.00000 
0.70476 1265.40723 -6.47374 -83.04039 1268.15000 -0.00000 -0.00000 0.00000 0.00000 
0.72008 1657.34090 -8.49421 -96.18286 1660.15000 -0.00000 -0.00000 0.00000 0.00000 
0.73540 1971.28573 -10.11420 -100.06612 1973.85000 -0.00000 -0.00000 0.00000 0.00000 
0.75072 2093.19188 -10.74421 -91.70981 2095.23000 -0.00000 -0.00000 0.00000 0.00000 
0.76604 2240.93521 -11.50863 -83.28585 2242.51000 -0.00000 -0.00000 0.00000 0.00000 
0.78136 2376.47827 -12.21107 -73.23235 2377.64000 -0.00000 -0.00000 0.00000 0.00000 
0.79668 2509.90130 -12.90367 -62.13737 2510.70000 -0.00000 -0.00000 0.00000 0.00000 
0.81200 2638.33366 -13.57165 -50.08872 2638.84000 -0.00000 -0.00000 0.00000 0.00000 
0.82732 2762.39214 -14.21828 -37.27848 2762.68000 -0.00000 -0.00000 0.00000 0.00000 
0.84264 2881.75645 -14.84202 -23.86824 2881.89000 -0.00000 -0.00000 0.00000 0.00000 
0.85796 2996.36096 -15.44270 -10.01808 2996.42000 -0.00000 -0.00000 0.00000 0.00000 
0.87328 3106.07443 -16.01985 4.11938 3106.12000 -0.00000 -0.00000 0.00000 0.00000 
0.88861 3210.78688 -16.57317 18.39799 3210.88000 -0.00000 -0.00000 0.00000 0.00000 
0.90393 3310.38654 -17.10239 32.67831 3310.59000 -0.00000 -0.00000 0.00000 0.00000 
0.91925 3404.76637 -17.60731 46.82760 3405.13000 -0.00000 -0.00000 0.00000 0.00000 
0.93457 3493.82268 -18.08773 60.71996 3494.40000 -0.00000 -0.00000 0.00000 0.00000 
0.94989 3577.45531 -18.54346 74.23637 3578.27000 -0.00000 -0.00000 0.00000 0.00000 
0.96521 3655.56930 -18.97420 87.26477 3656.66000 0.00000 -0.00000 0.00000 0.00000 
0.98053 3728.06960 -19.37944 99.70010 3729.45000 -0.00000 -0.00000 0.00000 0.00000 
0.99585 3794.88239 -19.75847 111.44491 3796.57000 -0.00000 -0.00000 0.00000 0.00000 
1.01117 3855.87713 -20.10984 122.40736 3857.87000 0.00000 -0.00000 0.00000 0.00000 
1.02649 3911.16031 -20.43277 132.51070 3913.46000 0.00000 -0.00000 0.00000 0.00000 
1.04181 3959.97849 -20.72142 141.65662 3962.57000 0.00000 -0.00000 0.00000 0.00000 
1.05713 4004.82386 -20.98634 149.87183 4007.68000 0.00000 -0.00000 0.00000 0.00000 
1.07245 4036.08222 -21.17449 156.73626 4039.18000 0.00000 -0.00000 0.00000 0.00000 
1.08778 4089.43174 -21.46942 163.60462 4092.76000 0.00000 -0.00000 0.00000 0.00000 
1.10310 4009.66413 -21.05794 164.16291 4013.08000 0.00000 -0.00000 0.00000 0.00000 
1.11842 3766.10393 -19.77830 156.86876 3769.42000 0.00000 -0.00000 0.00000 0.00000 
1.13374 3549.10002 -18.62536 149.67232 3552.30000 0.00000 0.00000 0.00000 0.00000 
1.14906 3318.88579 -17.39344 141.15010 3321.93000 0.00000 -0.00005 -0.00002 0.00006 
1.16438 3088.56259 -16.15464 132.05503 3091.43000 -0.00000 -0.00003 0.00001 0.00003 
1.17970 2850.53969 -14.87595 122.25259 2853.20000 0.00010 0.00017 -0.00047 0.00051 
1.19502 2626.99668 -13.67801 112.81724 2629.45000 0.00002 0.00029 -0.00011 0.00032 
1.21034 2341.63628 -12.16352 100.59336 2343.83000 0.00000 0.00000 0.00000 0.00000 
1.22566 2341.63115 -12.14909 100.62213 2343.82000 0.00000 0.00000 0.00000 0.00000 
1.24098 2626.98185 -13.63566 112.90019 2629.44000 0.00000 0.00000 0.00000 0.00000 
1.25630 2850.51629 -14.80897 122.38231 2853.18000 0.00000 0.00000 0.00000 0.00000 
1.27163 3088.53133 -16.06605 132.22812 3091.40000 0.00000 0.00000 0.00000 0.00000 
1.28695 3318.85110 -17.28876 141.33374 3321.90000 0.00000 0.00000 0.00000 0.00000 
1.30227 3549.06434 -18.51413 149.84849 3552.27000 0.00000 0.00000 0.00000 0.00000 
1.31759 3766.06900 -19.67122 157.02227 3769.39000 0.00000 0.00000 0.00000 0.00000 
1.33291 4009.63073 -20.96554 164.28309 4013.05000 0.00000 0.00000 0.00000 0.00000 
1.34823 4089.39928 -21.40153 163.68566 4092.73000 0.00000 0.00000 0.00000 0.00000 
1.36355 4036.04891 -21.13873 156.77715 4039.15000 0.00000 0.00000 0.00000 0.00000 
1.37887 4004.78698 -20.98710 149.87556 4007.65000 -0.00000 0.00000 0.00000 0.00000 
1.39419 3959.93451 -20.76037 141.62872 3962.52000 0.00000 0.00000 0.00000 0.00000 
1.40951 3911.10521 -20.50893 132.45804 3913.40000 0.00000 0.00000 0.00000 0.00000 
1.42483 3855.80677 -20.22021 122.33710 3857.80000 0.00000 0.00000 0.00000 0.00000 
1.44015 3794.79285 -19.89864 111.36374 3796.48000 -0.00000 0.00000 0.00000 0.00000 
1.45547 3727.95760 -19.54423 99.61381 3729.34000 -0.00000 0.00000 0.00000 0.00000 
1.47080 3655.43261 -19.15821 87.17809 3656.52000 -0.00000 0.00000 0.00000 0.00000 
1.48612 3577.29321 -18.74150 74.15290 3578.11000 0.00000 0.00000 0.00000 0.00000 
1.50144 3493.63638 -18.29508 60.64233 3494.21000 -0.00000 0.00000 0.00000 0.00000 
1.51676 3404.55936 -17.81991 46.75758 3404.93000 -0.00000 0.00000 0.00000 0.00000 
1.53208 3310.16475 -17.31691 32.61699 3310.37000 -0.00000 0.00000 0.00000 0.00000 
1.54740 3210.55860 -16.78696 18.34591 3210.65000 -0.00000 0.00000 0.00000 0.00000 
1.56272 3105.84993 -16.23094 4.07661 3105.90000 -0.00000 -0.00000 0.00000 0.00000 
1.57804 2996.15180 -15.64970 -10.05183 2996.21000 -0.00000 0.00000 0.00000 0.00000 
1.59336 2881.57459 -15.04404 -23.89354 2881.71000 -0.00000 0.00000 0.00000 0.00000 
1.60868 2762.24883 -14.41483 -37.29617 2762.54000 -0.00000 -0.00000 0.00000 0.00000 
1.62400 2638.23841 -13.76258 -50.09978 2638.75000 -0.00000 -0.00000 0.00000 0.00000 
1.63932 2509.86099 -13.08906 -62.14288 2510.66000 -0.00000 -0.00000 0.00000 0.00000 
1.65464 2376.49647 -12.39118 -73.23338 2377.66000 -0.00000 -0.00000 0.00000 0.00000 
1.66997 2241.01188 -11.68384 -83.28335 2242.59000 -0.00000 -0.00000 0.00000 0.00000 
1.68529 2093.32335 -10.91500 -91.70451 2095.36000 -0.00000 0.00000 0.00000 0.00000 
1.70061 1971.46515 -10.28104 -100.05846 1974.03000 -0.00000 -0.00000 0.00000 0.00000 
1.71593 1657.55863 -8.65794 -96.17286 1660.37000 -0.00000 0.00000 0.00000 0.00000 
1.73125 1265.65206 -6.63502 -83.02767 1268.39000 -0.00000 0.00000 0.00000 0.00000 
1.74657 890.35003 -4.70007 -65.42186 892.76300 -0.00000 0.00000 0.00000 0.00000 
1.76189 508.75951 -2.73470 -41.57337 510.46300 -0.00000 0.00000 0.00000 0.00000 
1.77721 127.64390 -0.77340 -11.66312 128.17800 -0.00000 0.00000 0.00000 0.00000 
1.79253 -254.20680 1.19054 24.64422 255.40100 -0.00000 0.00000 0.00000 0.00000 
1.80785 -635.92762 3.15314 67.45855 639.50300 -0.00000 0.00000 0.00000 0.00000 
1.82317 -1017.25586 5.11360 116.88231 1023.96000 -0.00000 0.00000 0.00000 0.00000 
1.83849 -1397.80469 7.07046 172.94399 1408.48000 -0.00000 0.00000 0.00000 0.00000 
1.85381 -1777.26670 9.02272 235.61755 1792.84000 -0.00000 0.00000 0.00000 0.00000 
1.86914 -2155.28718 10.96913 304.80591 2176.76000 -0.00000 0.00000 0.00000 0.00000 
1.88446 -2531.72676 12.90954 380.37637 2560.17000 -0.00000 0.00000 -0.00000 0.00000 
1.89978 -2905.69273 14.83992 462.01420 2942.23000 -0.00000 0.00000 -0.00000 0.00000 
1.91510 -3279.10093 16.77062 549.78572 3324.91000 -0.00000 0.00000 -0.00000 0.00000 
1.93042 -3643.33861 18.65773 641.90686 3699.50000 -0.00000 0.00000 -0.00000 0.00000 
1.94574 -4029.02052 20.65907 743.48246 4097.10000 -0.00000 0.00000 -0.00000 0.00000 
1.96106 -4205.94212 21.58996 810.31565 4283.34000 -0.00000 0.00000 -0.00000 0.00000 
1.97638 -4332.41929 22.26467 868.89042 4418.75000 -0.00000 0.00000 -0.00000 0.00000 
1.99170 -4466.35107 22.98038 929.95428 4562.20000 -0.00000 0.00000 -0.00000 0.00000 
2.00702 -4592.68925 23.65832 990.31045 4698.30000 -0.00000 0.00000 -0.00000 0.00000 
2.02234 -4715.46777 24.31725 1050.56900 4831.14000 -0.00000 0.00000 -0.00000 0.00000 
2.03766 -4833.58454 24.94892 1110.28091 4959.52000 -0.00000 0.00000 -0.00000 0.00000 
2.05299 -4947.30147 25.55165 1169.29409 5083.67000 -0.00000 0.00000 -0.00000 0.00000 
2.06831 -5056.49928 26.12179 1227.37680 5203.40000 -0.00000 0.00000 -0.00000 0.00000 
2.08363 -5161.14631 26.65662 1284.32245 5318.61000 -0.00000 -0.00000 -0.00000 0.00000 
2.09895 -5261.17338 27.15436 1339.92076 5429.19000 -0.00000 -0.00000 -0.00000 0.00000 
2.11427 -5356.50898 27.61493 1393.96589 5534.99000 -0.00000 -0.00000 0.00000 0.00000 
2.12959 -5447.07222 28.04012 1446.25414 5635.87000 -0.00003 0.00004 -0.00004 0.00006 
2.14491 -5532.77688 28.43346 1496.58519 5731.68000 -0.00145 0.00022 -0.00206 0.00253 
2.16023 -5613.54481 28.79864 1544.75573 5822.28000 0.02349 0.03000 0.03282 0.05029 
2.17555 -5689.26707 29.14088 1590.58368 5907.50000 -0.00007 0.00240 -0.00020 0.00241 
2.19087 -5759.86246 29.46576 1633.87525 5987.19000 -0.00000 -0.00000 0.00000 0.00000 
2.20619 -5825.24401 29.77592 1674.44854 6061.20000 -0.00000 0.00000 -0.00000 0.00000 
2.22151 -5885.32971 30.07203 1712.13131 6129.39000 -0.00000 -0.00000 -0.00000 0.00000 
2.23683 -5940.02020 30.35279 1746.75600 6191.60000 -0.00000 -0.00000 -0.00000 0.00000 
2.25216 -5989.28777 30.61582 1778.18728 6247.76000 -0.00000 -0.00000 -0.00000 0.00000 
2.26748 -6032.84502 30.85667 1806.22473 6297.51000 -0.00000 -0.00000 -0.00000 0.00000 
2.28280 -6071.38785 31.07581 1830.97534 6341.54000 -0.00000 -0.00000 -0.00000 0.00000 
2.29812 -6101.95602 31.25540 1851.45580 6376.73000 -0.00000 -0.00000 -0.00000 0.00000 
2.31344 -6135.27807 31.44839 1870.85177 6414.26000 -0.00000 -0.00000 -0.00000 0.00000 
2.32876 -5932.08769 30.42794 1815.92233 6203.88000 -0.00000 -0.00000 -0.00000 0.00000 
2.34408 -5713.32350 29.32509 1754.04075 5976.59000 -0.00000 -0.00000 -0.00000 0.00000 
2.35940 -5492.63182 28.20934 1689.78486 5746.75000 -0.00000 -0.00000 -0.00000 0.00000 
2.37472 -5267.45118 27.06759 1622.75016 5511.81000 -0.00000 -0.00000 -0.00000 0.00000 
2.39004 -5039.52254 25.90896 1553.82265 5273.69000 -0.00000 -0.00000 -0.00000 0.00000 
2.40536 -4809.39133 24.73660 1483.48736 5033.05000 -0.00000 -0.00000 -0.00000 0.00000 
2.42068 -4577.87753 23.55510 1412.27776 4790.83000 0.00000 -0.00000 -0.00000 0.00000 
2.43600 -4345.67882 22.36841 1340.65167 4547.83000 0.00000 -0.00000 -0.00000 0.00000 
