Hora(s) Fuerza[X](Revolución:2)-ArfadaCaso3.iaa(N) Fuerza[Y](Revolución:2)-ArfadaCaso3.iaa(N) Fuerza[X](Revolución:3)-ArfadaCaso3.iaa(N) Fuerza[Y](Revolución:3)-ArfadaCaso3.iaa(N) 
0.00000 -2953.98794 -2924.75813 3357.18469 1028.47936 
0.00635 -3008.55267 -2978.71654 3426.17608 1049.58157 
0.01270 -3063.35320 -3032.61312 3495.28159 1070.53068 
0.01905 -3118.61620 -3086.35780 3564.58642 1091.15122 
0.02540 -3174.57493 -3139.84590 3634.15724 1111.24712 
0.03175 -3231.57512 -3193.06254 3704.17350 1130.64183 
0.03810 -3289.67364 -3245.68566 3774.43048 1149.02638 
0.04445 -3350.15784 -3298.58370 3846.21436 1166.52978 
0.05080 -3409.74284 -3348.10341 3915.16752 1181.55554 
0.05715 -3416.55663 -3343.14730 3915.89183 1174.26196 
0.06350 -3427.65681 -3339.80175 3920.19060 1166.37624 
0.06985 -3439.99059 -3335.06514 3924.31338 1156.76679 
0.07620 -3454.38708 -3329.73252 3929.26920 1145.72915 
0.08255 -3470.59886 -3323.54800 3934.75473 1133.16740 
0.08890 -3488.67574 -3316.54211 3940.82600 1119.09103 
0.09525 -3508.58215 -3308.66133 3947.43617 1103.47883 
0.10160 -3530.30417 -3299.87135 3954.56388 1086.31644 
0.10795 -3553.81947 -3290.12829 3962.17757 1067.58603 
0.11430 -3579.10574 -3279.38695 3970.24544 1047.26931 
0.12065 -3606.13828 -3267.59862 3978.73268 1025.34675 
0.12700 -3634.89064 -3254.71180 3987.60229 1001.79788 
0.13335 -3665.33433 -3240.67213 3996.81480 976.60134 
0.13970 -3697.43886 -3225.42251 4006.32835 949.73491 
0.14605 -3731.17158 -3208.90320 4016.09860 921.17562 
0.15240 -3766.49756 -3191.05178 4026.07857 890.89977 
0.15875 -3803.37998 -3171.80373 4036.21945 858.88319 
0.16510 -3841.77682 -3151.08978 4046.46595 825.10033 
0.17145 -3881.65705 -3128.84941 4056.77749 789.52866 
0.17780 -3922.92194 -3104.96773 4067.03223 752.13019 
0.18415 -3965.76611 -3079.56081 4077.44662 712.92875 
0.19050 -4009.06293 -3051.72465 4086.77220 671.69621 
0.19685 -4057.42312 -3024.89905 4099.92522 629.20173 
0.20320 -4090.21354 -2983.81528 4095.43902 582.24155 
0.20955 -4059.20455 -2894.94882 4023.59235 524.97761 
0.21590 -4036.03763 -2811.66032 3960.81367 469.07502 
0.22225 -4007.78181 -2725.10469 3894.24331 413.09006 
0.22860 -3977.91889 -2638.15340 3827.59867 357.74738 
0.23495 -3945.07322 -2550.27866 3759.76848 303.18308 
0.24130 -3909.35914 -2461.95653 3691.06832 249.67455 
0.24765 -3870.50214 -2373.39092 3621.42351 197.44989 
0.25400 -3828.39050 -2284.87534 3550.89211 146.73537 
0.26035 -3782.91165 -2196.68469 3479.51099 97.74263 
0.26670 -3734.00721 -2109.10668 3407.34776 50.67116 
0.27305 -3681.61624 -2022.40659 3334.44225 5.70634 
0.27940 -3625.86019 -1936.92638 3260.99240 -36.98068 
0.28575 -3566.26667 -1852.66828 3186.60323 -77.22498 
0.29210 -3504.98318 -1770.96114 3113.28345 -114.94065 
0.29845 -3433.60602 -1687.80548 3033.55014 -149.68463 
0.30480 -3388.91434 -1621.23695 2979.28879 -183.07837 
0.31115 -3413.31577 -1589.94766 2986.47150 -218.61992 
0.31750 -3424.57488 -1554.01397 2982.88692 -252.34171 
0.32385 -3438.59558 -1520.91083 2981.99950 -285.15509 
0.33020 -3450.88110 -1488.57973 2980.09763 -316.74251 
0.33655 -3462.73786 -1457.60478 2978.24776 -347.18296 
0.34290 -3473.83143 -1427.84211 2976.19350 -376.43137 
0.34925 -3484.28659 -1399.34690 2974.04175 -404.48099 
0.35560 -3494.09833 -1372.11966 2971.79873 -431.31384 
0.36195 -3503.29610 -1346.17527 2969.49694 -456.91563 
0.36829 -3511.89821 -1321.52422 2967.16044 -481.27140 
0.37465 -3519.92441 -1298.17762 2964.81420 -504.36680 
0.38099 -3527.39244 -1276.14583 2962.48150 -526.18781 
0.38734 -3534.31893 -1255.43879 2960.18452 -546.72085 
0.39370 -3540.71932 -1236.06592 2957.94429 -565.95282 
0.40004 -3546.60738 -1218.03598 2955.78017 -583.87110 
0.40640 -3551.99737 -1201.35775 2953.71160 -600.46389 
0.41274 -3556.89593 -1186.03726 2951.75148 -615.71899 
0.41909 -3561.33286 -1172.08805 2949.93078 -629.62894 
0.42545 -3565.24528 -1159.49299 2948.20666 -642.17154 
0.43179 -3568.91368 -1148.34618 2946.80463 -653.38424 
0.43815 -3571.32318 -1138.32513 2944.94435 -663.08230 
0.44449 -3576.31627 -1130.65376 2945.58455 -671.92505 
0.45084 -3569.51744 -1120.80047 2937.75111 -677.39237 
0.45719 -3613.54501 -1128.37862 2968.98882 -690.47948 
0.46354 -3720.92500 -1156.98069 3048.69768 -713.65186 
0.46989 -3815.23380 -1182.59144 3118.80110 -733.55071 
0.47624 -3912.87399 -1210.20976 3191.71018 -753.18085 
0.48259 -4008.88863 -1238.16768 3263.68025 -771.78987 
0.48894 -4106.69976 -1267.37161 3337.26471 -790.12667 
0.49529 -4197.71859 -1294.99914 3405.91865 -806.80647 
0.50164 -4313.11920 -1330.47433 3493.14888 -827.57888 
0.50799 -4313.11897 -1330.47595 3493.14921 -827.57543 
0.51434 -4197.71798 -1295.00391 3405.91954 -806.79623 
0.52069 -4106.69886 -1267.37943 3337.26601 -790.10976 
0.52704 -4008.88754 -1238.17847 3263.68181 -771.76644 
0.53339 -3912.87278 -1210.22343 3191.71185 -753.15102 
0.53974 -3815.23254 -1182.60791 3118.80271 -733.51462 
0.54609 -3720.92374 -1156.99987 3048.69904 -713.60965 
0.55244 -3613.54385 -1128.40041 2968.98971 -690.43137 
0.55879 -3569.51613 -1120.82503 2937.75154 -677.33810 
0.56514 -3576.31450 -1130.68133 2945.58461 -671.86433 
0.57149 -3571.32089 -1138.35569 2944.94391 -663.01524 
0.57784 -3568.91071 -1148.37979 2946.80361 -653.31086 
0.58419 -3565.24148 -1159.52970 2948.20495 -642.09191 
0.59054 -3561.32806 -1172.12789 2949.92827 -629.54314 
0.59689 -3556.88996 -1186.08027 2951.74806 -615.62710 
0.60324 -3551.99003 -1201.40396 2953.70715 -600.36604 
0.60959 -3546.59846 -1218.08542 2955.77457 -583.76742 
0.61594 -3540.70862 -1236.11860 2957.93742 -565.84350 
0.62229 -3534.30622 -1255.49472 2960.17627 -546.60607 
0.62864 -3527.37748 -1276.20501 2962.47176 -526.06781 
0.63499 -3519.90697 -1298.24003 2964.80288 -504.24184 
0.64134 -3511.87804 -1321.58983 2967.14746 -481.14178 
0.64769 -3503.27297 -1346.24403 2969.48223 -456.78169 
0.65404 -3494.07200 -1372.19150 2971.78225 -431.17594 
0.66039 -3484.25684 -1399.42174 2974.02348 -404.33956 
0.66674 -3473.79804 -1427.91984 2976.17345 -376.28685 
0.67309 -3462.70065 -1457.68527 2978.22598 -347.03583 
0.67944 -3450.83990 -1488.66284 2980.07421 -316.59328 
0.68579 -3438.55027 -1520.99638 2981.97458 -285.00430 
0.69214 -3424.52539 -1554.10176 2982.86066 -252.18996 
0.69849 -3413.26195 -1590.03756 2986.44416 -218.46764 
0.70484 -3388.85664 -1621.32847 2979.26053 -182.92670 
0.71119 -3433.54171 -1687.90022 3033.52197 -149.53057 
0.71754 -3504.91067 -1771.05981 3113.25588 -114.78289 
0.72389 -3566.18570 -1852.77068 3186.57643 -77.06396 
0.73024 -3625.77010 -1937.03252 3260.96660 -36.81637 
0.73659 -3681.51648 -2022.51638 3334.41765 5.87382 
0.74294 -3733.89720 -2109.22005 3407.32456 50.84174 
0.74929 -3782.79083 -2196.80152 3479.48936 97.91622 
0.75564 -3828.25829 -2284.99549 3550.87221 146.91186 
0.76199 -3870.35800 -2373.51421 3621.40548 197.62915 
0.76834 -3909.20256 -2462.08274 3691.05229 249.85643 
0.77469 -3944.90375 -2550.40754 3759.75456 303.36744 
0.78104 -3977.73614 -2638.28464 3827.58697 357.93404 
0.78739 -4007.58552 -2725.23794 3894.23391 413.27885 
0.79374 -4035.82760 -2811.79523 3960.80666 469.26582 
0.80009 -4058.98103 -2895.08490 4023.58783 525.17007 
0.80644 -4089.97589 -2983.95239 4095.43699 582.43628 
0.81279 -4057.17942 -3025.03426 4099.92647 629.39242 
0.81914 -4008.81655 -3051.85718 4086.77725 671.88139 
0.82549 -3965.51849 -3079.69068 4077.45575 713.10889 
0.83184 -3922.67530 -3105.09484 4067.04573 752.30540 
0.83819 -3881.41358 -3128.97379 4056.79555 789.69936 
0.84454 -3841.53888 -3151.21156 4046.48868 825.26702 
0.85089 -3803.14998 -3171.92310 4036.24689 859.04653 
0.85724 -3766.27796 -3191.16906 4026.11064 891.06052 
0.86359 -3730.96481 -3209.01876 4016.13516 921.33464 
0.86994 -3697.24725 -3225.53682 4006.36915 949.89315 
0.87629 -3665.16006 -3240.78571 3996.85952 976.75981 
0.88264 -3634.73565 -3254.82526 3987.65049 1001.95761 
0.88899 -3606.00424 -3267.71260 3978.78388 1025.50877 
0.89534 -3578.99398 -3279.50214 3970.29908 1047.43465 
0.90169 -3553.73090 -3290.24539 3962.23304 1067.75564 
0.90804 -3530.23927 -3299.99109 3954.62053 1086.49119 
0.91439 -3508.54092 -3308.78443 3947.49331 1103.65953 
0.92074 -3488.65768 -3316.66925 3940.88295 1119.27833 
0.92709 -3470.60297 -3323.67986 3934.81080 1133.36184 
0.93344 -3454.41188 -3329.86972 3929.32372 1145.93110 
0.93979 -3440.03416 -3335.20823 3924.36571 1156.97649 
0.94614 -3427.71680 -3339.95123 3920.24015 1166.59378 
0.95249 -3416.63044 -3343.30356 3915.93806 1174.48721 
0.95884 -3409.82722 -3348.26683 3915.20990 1181.78854 
0.96519 -3350.25778 -3298.75267 3846.25416 1166.76310 
0.97154 -3289.78614 -3245.85996 3774.46749 1149.25921 
0.97789 -3231.69679 -3193.24184 3704.20747 1130.87368 
0.98424 -3174.70266 -3140.02962 3634.18799 1111.47736 
0.99059 -3118.74706 -3086.54517 3564.61381 1091.37921 
0.99694 -3063.48454 -3032.80321 3495.30553 1070.75580 
1.00329 -3008.68216 -2978.90833 3426.19655 1049.80318 
1.00964 -2954.11502 -2924.95196 3357.20329 1028.69737 
