Hora(s) Fuerza[X](Revolución:2)-BalanceoCaso3.iaa(N) Fuerza[Y](Revolución:2)-BalanceoCaso3.iaa(N) Fuerza[X](Revolución:3)-BalanceoCaso3.iaa(N) Fuerza[Y](Revolución:3)-BalanceoCaso3.iaa(N) 
0.00000 -4352.13298 -1346.80329 3519.21239 -837.07130 
0.00910 -4554.00572 -1409.24630 3422.97351 -814.15212 
0.01820 -4755.74865 -1471.38712 3326.74368 -791.03473 
0.02731 -4957.20334 -1532.87465 3230.45948 -767.52514 
0.03641 -5158.08578 -1593.27560 3134.02044 -743.44434 
0.04551 -5358.33151 -1652.18187 3037.12544 -718.58996 
0.05461 -5556.81216 -1708.81611 2939.88728 -692.88265 
0.06371 -5756.12189 -1763.50539 2840.53639 -665.82674 
0.07282 -5944.70037 -1812.20738 2744.03237 -638.52953 
0.08192 -5931.18096 -1796.52029 2743.04946 -632.32921 
0.09102 -5923.37878 -1780.06615 2737.65307 -623.82296 
0.10012 -5911.89620 -1760.02286 2732.40858 -614.08752 
0.10922 -5899.24761 -1737.18453 2726.10129 -602.86998 
0.11832 -5884.75945 -1711.39151 2719.07602 -590.27627 
0.12743 -5868.61086 -1682.74338 2711.25941 -576.32120 
0.13653 -5850.75267 -1651.27732 2702.69336 -561.04778 
0.14563 -5831.19650 -1617.05294 2693.39097 -544.49517 
0.15473 -5809.93743 -1580.12968 2683.37550 -526.70679 
0.16383 -5786.97467 -1540.57247 2672.66985 -507.72776 
0.17294 -5762.30600 -1498.45005 2661.29934 -487.60510 
0.18204 -5735.92921 -1453.83507 2649.29104 -466.38729 
0.19114 -5707.84180 -1406.80387 2636.67384 -444.12384 
0.20024 -5678.04087 -1357.43619 2623.47857 -420.86502 
0.20934 -5646.52366 -1305.81508 2609.73759 -396.66133 
0.21845 -5613.28556 -1252.02625 2595.48607 -371.56336 
0.22755 -5578.32755 -1196.15949 2580.75726 -345.62073 
0.23665 -5541.62850 -1138.30250 2565.60015 -318.88405 
0.24575 -5503.24797 -1078.56186 2550.01243 -291.39618 
0.25485 -5462.94510 -1016.98791 2534.19464 -263.22100 
0.26395 -5421.59060 -953.83816 2517.58532 -234.34258 
0.27306 -5375.93822 -888.65440 2502.52340 -205.00651 
0.28216 -5337.97476 -823.47209 2480.34292 -174.57723 
0.29126 -5261.95526 -751.53751 2485.23737 -145.32934 
0.30036 -5027.01064 -658.47433 2616.17885 -120.89938 
0.30946 -4815.82656 -572.12184 2739.26547 -92.16381 
0.31857 -4604.64793 -489.52897 2873.32544 -59.85011 
0.32767 -4400.39637 -411.74308 3013.49936 -23.55531 
0.33677 -4201.79445 -338.74933 3161.28661 16.89071 
0.34587 -4009.66918 -270.69429 3316.35601 61.68383 
0.35497 -3824.21814 -207.60402 3478.78224 110.99337 
0.36408 -3645.73244 -149.45851 3648.43751 164.95783 
0.37318 -3474.39306 -96.18344 3825.16990 223.67828 
0.38228 -3310.35370 -47.66246 4008.72467 287.20738 
0.39138 -3153.59588 -3.74245 4198.89798 355.55201 
0.40048 -3004.40294 35.75708 4395.01291 428.62181 
0.40959 -2861.61935 71.01700 4597.90217 506.41420 
0.41869 -2729.02541 102.36186 4802.43728 588.18984 
0.42779 -2591.93223 129.39971 5025.73671 675.90293 
0.43689 -2506.68622 155.43314 5196.13905 759.28272 
0.44599 -2536.00812 186.95289 5223.19955 821.89241 
0.45510 -2547.41562 216.68140 5271.14891 886.49368 
0.46420 -2563.27931 246.13485 5311.26972 948.58505 
0.47330 -2577.65122 274.79928 5351.33579 1009.34533 
0.48240 -2592.04753 302.77759 5389.25467 1068.31236 
0.49150 -2606.01902 329.98561 5425.59946 1125.49761 
0.50060 -2619.63643 356.39169 5460.22306 1180.77997 
0.50971 -2632.83537 381.94705 5493.17244 1234.07880 
0.51881 -2645.58909 406.60636 5524.44187 1285.30511 
0.52791 -2657.86300 430.32236 5554.03953 1334.37559 
0.53701 -2669.62669 453.04784 5581.96953 1381.20893 
0.54611 -2680.85077 474.73556 5608.23675 1425.72710 
0.55522 -2691.50773 495.33876 5632.84559 1467.85527 
0.56432 -2701.57188 514.81150 5655.80005 1507.52201 
0.57342 -2711.01870 533.10887 5677.10482 1544.65978 
0.58252 -2719.82748 550.18793 5696.76071 1579.20390 
0.59162 -2727.97168 566.00600 5714.78204 1611.09749 
0.60073 -2735.45440 580.52842 5731.13144 1640.27337 
0.60983 -2742.17733 593.70106 5745.96384 1666.72392 
0.61893 -2748.42567 605.55535 5758.71394 1690.23687 
0.62803 -2753.07210 615.81377 5771.50842 1711.39588 
0.63713 -2760.23449 625.37610 5776.40948 1727.80205 
0.64624 -2754.57368 630.73408 5803.09217 1748.32110 
0.65534 -2802.23414 647.06562 5722.71996 1734.01729 
0.66444 -2915.75515 677.60011 5509.34724 1676.67402 
0.67354 -3014.65208 703.87008 5320.69256 1624.44464 
0.68264 -3116.52894 730.01809 5123.45617 1567.68785 
0.69175 -3216.49267 754.99458 4928.15838 1510.05188 
0.70085 -3318.31370 779.80086 4728.10696 1449.88620 
0.70995 -3413.13862 802.49987 4541.30869 1393.07147 
0.71905 -3533.52813 830.91266 4303.87995 1320.32394 
0.72815 -3533.53396 830.91311 4303.94143 1320.31265 
0.73725 -3413.15599 802.50123 4541.49243 1393.03827 
0.74636 -3318.34213 779.80306 4728.40794 1449.83290 
0.75546 -3216.53125 754.99745 4928.56735 1509.98141 
0.76456 -3116.57638 730.02134 5123.95966 1567.60406 
0.77366 -3014.70670 703.87334 5321.27373 1624.35213 
0.78276 -2915.81496 677.60289 5509.98644 1676.57786 
0.79187 -2802.29697 647.06743 5723.39658 1733.92286 
0.80097 -2754.63717 630.73421 5803.78256 1748.23301 
0.81007 -2760.29646 625.37386 5777.09149 1727.72441 
0.81917 -2753.13073 615.80866 5772.16432 1711.33277 
0.82827 -2748.47946 605.54694 5759.32847 1690.19149 
0.83737 -2742.22521 593.68903 5746.52533 1666.69866 
0.84648 -2735.49572 580.51254 5731.63179 1640.26969 
0.85558 -2728.00619 565.98614 5715.21667 1611.11594 
0.86468 -2719.85529 550.16402 5697.12822 1579.24419 
0.87378 -2711.04022 533.08091 5677.40657 1544.72087 
0.88289 -2701.58773 514.77950 5656.03959 1507.60223 
0.89199 -2691.51866 495.30276 5633.02809 1467.95251 
0.90109 -2680.85760 474.69557 5608.36842 1425.83891 
0.91019 -2669.63023 453.00385 5582.05717 1381.33271 
0.91929 -2657.86402 430.27434 5554.09004 1334.50868 
0.92839 -2645.58825 406.55422 5524.46195 1285.44493 
0.93750 -2632.83321 381.89065 5493.16836 1234.22291 
0.94660 -2619.63339 356.33087 5460.20048 1180.92615 
0.95570 -2606.01538 329.92015 5425.56334 1125.64387 
0.96480 -2592.04345 302.70725 5389.20925 1068.45699 
0.97390 -2577.64676 274.72380 5351.28458 1009.48691 
0.98301 -2563.27441 246.05395 5311.21558 948.72239 
0.99211 -2547.41014 216.59480 5271.09406 886.62588 
1.00121 -2536.00186 186.86026 5223.14570 822.01874 
1.01031 -2506.67888 155.33438 5196.08734 759.40283 
1.01941 -2591.92377 129.29348 5025.68840 676.01557 
1.02851 -2729.01559 102.24731 4802.39295 588.29464 
1.03762 -2861.60780 70.89381 4597.86190 506.51137 
1.04672 -3004.38937 35.62484 4394.97659 428.71154 
1.05582 -3153.58003 -3.88407 4198.86536 355.63460 
1.06492 -3310.33542 -47.81374 4008.69536 287.28315 
1.07402 -3474.37231 -96.34457 3825.14345 223.74759 
1.08313 -3645.70934 -149.62959 3648.41339 165.02107 
1.09223 -3824.19301 -207.78504 3478.75994 111.05094 
1.10133 -4009.64263 -270.88510 3316.33499 61.73616 
1.11043 -4201.76741 -338.94963 3161.26639 16.93821 
1.11953 -4400.37012 -411.95242 3013.47949 -23.51220 
1.12864 -4604.62421 -489.74671 2873.30554 -59.81098 
1.13774 -4815.80762 -572.34718 2739.24525 -92.12826 
1.14684 -5026.99926 -658.70618 2616.15815 -120.86701 
1.15594 -5261.95479 -751.77499 2485.21612 -145.29981 
1.16504 -5337.98923 -823.71103 2480.32129 -174.54991 
1.17415 -5375.97194 -888.89251 2502.50169 -204.98112 
1.18325 -5421.64816 -954.07390 2517.56396 -234.31894 
1.19235 -5463.03125 -1017.21958 2534.17420 -263.19897 
1.20145 -5503.36740 -1078.78797 2549.99362 -291.37566 
1.21055 -5541.78561 -1138.52177 2565.58374 -318.86496 
1.21965 -5578.52619 -1196.37097 2580.74409 -345.60306 
1.22876 -5613.52867 -1252.22940 2595.47696 -371.54710 
1.23786 -5646.81301 -1306.00982 2609.73331 -396.64648 
1.24696 -5678.37674 -1357.62297 2623.47975 -420.85159 
1.25606 -5708.22280 -1406.98365 2636.68096 -444.11184 
1.26516 -5736.35212 -1454.00930 2649.30430 -466.37666 
1.27427 -5762.76571 -1498.62060 2661.31871 -487.59576 
1.28337 -5787.46437 -1540.74154 2672.69499 -507.71953 
1.29247 -5810.44874 -1580.29963 2683.40580 -526.69946 
1.30157 -5831.71996 -1617.22617 2693.42557 -544.48843 
1.31067 -5851.27812 -1651.45608 2702.73120 -561.04127 
1.31978 -5869.12788 -1682.92970 2711.29930 -576.31450 
1.32888 -5885.25817 -1711.58692 2719.11670 -590.26893 
1.33798 -5899.71894 -1737.39013 2726.14156 -602.86152 
1.34708 -5912.33239 -1760.23918 2732.44732 -614.07747 
1.35618 -5923.77369 -1780.29318 2737.68934 -623.81086 
1.36529 -5931.53027 -1796.75746 2743.08250 -632.31465 
1.37439 -5945.00168 -1812.45383 2744.06169 -638.51214 
1.38349 -5756.37428 -1763.75614 2840.56163 -665.80620 
1.39259 -5557.01738 -1709.06944 2939.90845 -692.85869 
1.40169 -5358.49262 -1652.43618 3037.14272 -718.56237 
1.41079 -5158.20678 -1593.52922 3134.03418 -743.41290 
1.41990 -4957.28880 -1533.12597 3230.47010 -767.48966 
1.42900 -4755.80346 -1471.63467 3326.75168 -790.99499 
1.43810 -4554.03479 -1409.48876 3422.97940 -814.10791 
1.44720 -4352.14210 -1347.03985 3519.21717 -837.02244 
