Hora(s) Fuerza[X](Revolución:2)-CabeceoCaso3.iaa(N) Fuerza[Y](Revolución:2)-CabeceoCaso3.iaa(N) Fuerza[X](Revolución:3)-CabeceoCaso3.iaa(N) Fuerza[Y](Revolución:3)-CabeceoCaso3.iaa(N) 
0.00000 -4345.91577 -1340.56364 3517.95152 -833.52032 
0.01532 -4578.12491 -1412.17910 3724.91546 -882.55855 
0.03064 -4809.64834 -1483.37627 3931.23917 -931.56642 
0.04596 -5039.78862 -1553.69772 4136.29728 -980.53986 
0.06128 -5267.72483 -1622.61015 4339.38090 -1029.47941 
0.07660 -5492.91021 -1689.62886 4540.05135 -1078.47328 
0.09192 -5713.60211 -1753.86835 4736.82852 -1127.38466 
0.10724 -5932.35998 -1815.73385 4932.08963 -1177.01612 
0.12257 -6135.53516 -1870.64849 5113.77880 -1224.74317 
0.13789 -6102.18610 -1851.24091 5084.69514 -1223.34673 
0.15321 -6071.57813 -1830.75255 5058.14736 -1223.73360 
0.16853 -6032.98182 -1805.99892 5024.53827 -1223.56403 
0.18385 -5989.35803 -1777.96413 4986.47582 -1223.42644 
0.19917 -5940.01344 -1746.54142 4943.30518 -1223.11418 
0.21449 -5885.24026 -1711.93061 4895.24886 -1222.62758 
0.22981 -5825.07298 -1674.26550 4842.29795 -1221.90381 
0.24513 -5759.61905 -1633.71124 4784.50824 -1220.88952 
0.26045 -5688.96849 -1590.43706 4721.92031 -1219.52098 
0.27577 -5613.21617 -1544.62204 4654.58037 -1217.72920 
0.29109 -5532.45399 -1496.45221 4582.53402 -1215.43833 
0.30642 -5446.77124 -1446.11995 4505.82740 -1212.56578 
0.32174 -5356.25288 -1393.82299 4424.50639 -1209.02201 
0.33706 -5260.97837 -1339.76346 4338.61624 -1204.71020 
0.35238 -5161.02118 -1284.14735 4248.20173 -1199.52628 
0.36770 -5056.44549 -1227.18323 4153.30478 -1193.35806 
0.38302 -4947.31443 -1169.08388 4053.97238 -1186.08736 
0.39834 -4833.65556 -1110.05784 3950.22571 -1177.58087 
0.41366 -4715.58618 -1050.33807 3842.17420 -1167.72392 
0.42898 -4592.84423 -990.07707 3729.59001 -1156.29112 
0.44430 -4466.53300 -929.72365 3613.49219 -1143.43680 
0.45962 -4332.62054 -868.66713 3490.24472 -1127.82920 
0.47494 -4206.15746 -810.10337 3373.54579 -1113.74828 
0.49027 -4029.24693 -743.28404 3210.87038 -1083.51713 
0.50559 -3643.57474 -641.72444 2858.09287 -986.23875 
0.52091 -3279.34782 -549.62013 2523.94678 -890.84850 
0.53623 -2905.95265 -461.86566 2180.88232 -787.49937 
0.55155 -2532.00277 -380.24452 1836.88857 -678.61735 
0.56687 -2155.58256 -304.69000 1490.42520 -563.33161 
0.58219 -1777.58440 -235.51648 1142.49015 -441.74226 
0.59751 -1398.14673 -172.85636 793.39147 -313.75572 
0.61283 -1017.62279 -116.80653 443.61880 -179.40952 
0.62815 -636.31808 -67.39288 93.60242 -38.78300 
0.64347 -254.61717 -24.58685 -256.17485 107.95632 
0.65879 127.21962 11.71398 -605.36419 260.62938 
0.67412 508.32955 41.61939 -953.09407 418.76191 
0.68944 889.92454 65.46448 -1300.39295 582.64705 
0.70476 1265.24237 83.06802 -1641.11279 749.28224 
0.72008 1657.17646 96.21167 -1995.86805 927.84878 
0.73540 1971.12163 100.09609 -2279.52068 1078.12494 
0.75072 2093.02796 91.74090 -2389.63524 1148.86783 
0.76604 2240.77149 83.31801 -2522.10629 1231.58156 
0.78136 2376.31473 73.26552 -2642.90249 1309.79078 
0.79668 2509.73794 62.17151 -2761.14099 1387.71877 
0.81200 2638.17048 50.12379 -2874.33668 1463.94267 
0.82732 2762.22914 37.31445 -2983.11924 1538.58575 
0.84264 2881.59363 23.90504 -3087.27803 1611.35564 
0.85796 2996.19829 10.05569 -3186.82631 1682.07955 
0.87328 3105.91193 -4.08102 -3281.71589 1750.55898 
0.88861 3210.62453 -18.35892 -3371.91446 1816.60985 
0.90393 3310.22434 -32.63856 -3457.38511 1880.05225 
0.91925 3404.60432 -46.78722 -3538.09190 1940.71394 
0.93457 3493.66076 -60.67899 -3613.99842 1998.43015 
0.94989 3577.29351 -74.19485 -3685.06791 2053.04411 
0.96521 3655.40762 -87.22275 -3751.26449 2104.40819 
0.98053 3727.90803 -99.65761 -3812.54849 2152.38150 
0.99585 3794.72092 -111.40199 -3868.89533 2196.84075 
1.01117 3855.71576 -122.36406 -3920.22665 2237.64113 
1.02649 3910.99902 -132.46704 -3966.67011 2274.76460 
1.04181 3959.81728 -141.61266 -4007.59018 2307.76423 
1.05713 4004.66271 -149.82760 -4045.21424 2337.85149 
1.07245 4035.92113 -156.69179 -4071.08071 2360.06687 
1.08778 4089.27071 -163.55996 -4116.68580 2392.63143 
1.10310 4009.50305 -164.11810 -4045.16961 2355.88369 
1.11842 3765.94266 -156.82383 -3829.52754 2233.78111 
1.13374 3548.93859 -149.62731 -3637.56140 2124.23449 
1.14906 3318.72417 -141.10503 -3434.17984 2007.05052 
1.16438 3088.40079 -132.00992 -3230.89017 1889.18815 
1.17970 2850.37769 -122.20745 -3020.96428 1766.92736 
1.19502 2626.83450 -112.77209 -2823.90140 1651.85961 
1.21034 2341.47386 -100.54822 -2572.42634 1504.78171 
1.22566 2341.46874 -100.57698 -2572.43327 1504.77943 
1.24098 2626.81967 -112.85505 -2823.92202 1651.85262 
1.25630 2850.35429 -122.33717 -3020.99807 1766.91525 
1.27163 3088.36953 -132.18300 -3230.93656 1889.17055 
1.28695 3318.68948 -141.28866 -3434.23649 2007.02613 
1.30227 3548.90291 -149.80348 -3637.62639 2124.20240 
1.31759 3765.90774 -156.97734 -3829.59870 2233.74051 
1.33291 4009.46965 -164.23828 -4045.24458 2355.83401 
1.34823 4089.23825 -163.64100 -4116.76167 2392.57237 
1.36355 4035.88782 -156.73268 -4071.15412 2359.99847 
1.37887 4004.62583 -149.83133 -4045.28150 2337.77430 
1.39419 3959.77329 -141.58476 -4007.64690 2307.67925 
1.40951 3910.94392 -132.41439 -3966.71124 2274.67334 
1.42483 3855.64540 -122.29380 -3920.24649 2237.54559 
1.44015 3794.63139 -111.32082 -3868.88776 2196.74340 
1.45547 3727.79603 -99.57132 -3812.50738 2152.28521 
1.47080 3655.27093 -87.13606 -3751.18428 2104.31606 
1.48612 3577.13141 -74.11138 -3684.94434 2052.95933 
1.50144 3493.47445 -60.60136 -3613.82938 1998.35564 
1.51676 3404.39730 -46.71720 -3537.87819 1940.65212 
1.53208 3310.00255 -32.57724 -3457.13106 1880.00465 
1.54740 3210.39625 -18.30684 -3371.62814 1816.57688 
1.56272 3105.68743 -4.03825 -3281.40893 1750.53976 
1.57804 2995.98914 10.08943 -3186.51318 1682.07186 
1.59336 2881.41176 23.93034 -3086.97487 1611.35611 
1.60868 2762.08582 37.33213 -2982.84236 1538.59020 
1.62400 2638.07523 50.13486 -2874.10102 1463.94657 
1.63932 2509.69764 62.17703 -2760.95865 1387.71774 
1.65464 2376.33293 73.26655 -2642.78160 1309.78119 
1.66997 2240.84815 83.31550 -2522.05035 1231.56091 
1.68529 2093.15943 91.73560 -2389.64298 1148.83515 
1.70061 1971.30106 100.08844 -2279.58640 1078.08087 
1.71593 1657.39420 96.20168 -1995.98204 927.79615 
1.73125 1265.48721 83.05529 -1641.26287 749.22525 
1.74657 890.18477 65.44825 -1300.56601 582.59066 
1.76189 508.59385 41.59850 -953.27717 418.71152 
1.77721 127.47784 11.68696 -605.54560 260.59027 
1.79253 -254.37325 -24.62168 -256.34503 107.93302 
1.80785 -636.09446 -67.43733 93.45050 -38.78707 
1.82317 -1017.42309 -116.86241 443.48950 -179.39235 
1.83849 -1397.97229 -172.92542 793.28663 -313.71678 
1.85381 -1777.43467 -235.60030 1142.40954 -441.68244 
1.86914 -2155.45551 -304.78998 1490.36701 -563.25298 
1.88446 -2531.89544 -380.36173 1836.84999 -678.52284 
1.89978 -2905.86174 -462.00085 2180.86001 -787.39246 
1.91510 -3279.27027 -549.77362 2523.93730 -890.73285 
1.93042 -3643.50826 -641.89598 2858.09304 -986.11799 
1.94574 -4029.19049 -743.47278 3210.87745 -1083.39460 
1.96106 -4206.11220 -810.30711 3373.55769 -1113.62697 
1.97638 -4332.58943 -868.88299 3490.25992 -1127.71161 
1.99170 -4466.52127 -929.94791 3613.50976 -1143.32494 
2.00702 -4592.85949 -990.30511 3729.60961 -1156.18658 
2.02234 -4715.63804 -1050.56465 3842.19603 -1167.62788 
2.03766 -4833.75484 -1110.27749 3950.25041 -1177.49414 
2.05299 -4947.47180 -1169.29158 4054.00082 -1186.01041 
2.06831 -5056.66963 -1227.37515 4153.33790 -1193.29105 
2.08363 -5161.31666 -1284.32161 4248.24029 -1199.46910 
2.09895 -5261.34374 -1339.92070 4338.66058 -1204.66242 
2.11427 -5356.67934 -1393.96657 4424.55627 -1208.98294 
2.12959 -5447.24258 -1446.25551 4505.88185 -1212.53450 
2.14491 -5532.94723 -1496.58721 4582.59142 -1215.41370 
2.16023 -5613.71516 -1544.75836 4654.63900 -1217.71009 
2.17555 -5689.43741 -1590.58687 4721.97798 -1219.50617 
2.19087 -5760.03279 -1633.87897 4784.56193 -1220.87763 
2.20619 -5825.41432 -1674.45275 4842.34585 -1221.89382 
2.22151 -5885.50001 -1712.13595 4895.28970 -1222.61864 
2.23683 -5940.19049 -1746.76104 4943.33840 -1223.10567 
2.25216 -5989.45805 -1778.19268 4986.50153 -1223.41793 
2.26748 -6033.01529 -1806.23045 5024.55712 -1223.55524 
2.28280 -6071.55810 -1830.98133 5058.16034 -1223.72435 
2.29812 -6102.12626 -1851.46202 5084.70342 -1223.33691 
2.31344 -6135.44832 -1870.85818 5113.78357 -1224.73267 
2.32876 -5932.25772 -1815.92889 4932.09205 -1177.00483 
2.34408 -5713.49331 -1754.04742 4736.82955 -1127.37241 
2.35940 -5492.80141 -1689.79161 4540.05179 -1078.45986 
2.37472 -5267.62055 -1622.75696 4339.38138 -1029.46457 
2.39004 -5039.69169 -1553.82949 4136.29829 -980.52329 
2.40536 -4809.56027 -1483.49421 3931.24108 -931.54777 
2.42068 -4578.04624 -1412.28462 3724.91853 -882.53740 
2.43600 -4345.84732 -1340.65853 3517.95688 -833.49642 
