//              Time(s)       Moment[Z](Revolution:3)(N.mm) 
               0.00000      -532851.00000 
               0.00402      -541626.00000 
               0.00804      -550400.00000 
               0.01206      -559175.00000 
               0.01608      -567947.00000 
               0.02010      -576721.00000 
               0.02412      -585495.00000 
               0.02814      -594263.00000 
               0.03216      -603047.00000 
               0.03618      -611802.00000 
               0.04020      -620614.00000 
               0.04422      -629389.00000 
               0.04824      -638190.00000 
               0.05226      -646967.00000 
               0.05628      -655799.00000 
               0.06030      -664728.00000 
               0.06432      -673548.00000 
               0.06834      -682183.00000 
               0.07236      -690702.00000 
               0.07638      -691597.00000 
               0.08040      -691451.00000 
               0.08442      -691551.00000 
               0.08844      -691767.00000 
               0.09246      -691946.00000 
               0.09648      -692124.00000 
               0.10050      -692241.00000 
               0.10452      -692487.00000 
               0.10854      -692649.00000 
               0.11256      -692898.00000 
               0.11658      -693098.00000 
               0.12060      -693334.00000 
               0.12462      -693578.00000 
               0.12864      -693800.00000 
               0.13266      -694084.00000 
               0.13668      -694290.00000 
               0.14070      -694614.00000 
               0.14472      -694851.00000 
               0.14874      -695165.00000 
               0.15276      -695439.00000 
               0.15678      -695732.00000 
               0.16080      -696042.00000 
               0.16482      -696314.00000 
               0.16884      -696657.00000 
               0.17286      -696909.00000 
               0.17688      -697281.00000 
               0.18090      -697564.00000 
               0.18492      -697909.00000 
               0.18894      -698221.00000 
               0.19296      -698537.00000 
               0.19698      -698877.00000 
               0.20100      -699161.00000 
               0.20502      -699527.00000 
               0.20904      -699794.00000 
               0.21306      -700167.00000 
               0.21708      -700456.00000 
               0.22110      -700793.00000 
               0.22512      -701103.00000 
               0.22914      -701400.00000 
               0.23316      -701729.00000 
               0.23718      -701984.00000 
               0.24120      -702334.00000 
               0.24522      -702575.00000 
               0.24924      -702903.00000 
               0.25326      -703149.00000 
               0.25728      -703450.00000 
               0.26130      -703747.00000 
               0.26532      -703964.00000 
               0.26934      -704136.00000 
               0.27336      -704251.00000 
               0.27738      -704942.00000 
               0.28140      -705497.00000 
               0.28542      -704575.00000 
               0.28944      -703269.00000 
               0.29346      -696950.00000 
               0.29748      -686737.00000 
               0.30150      -676837.00000 
               0.30552      -667271.00000 
               0.30954      -657958.00000 
               0.31356      -647772.00000 
               0.31758      -637893.00000 
               0.32160      -627626.00000 
               0.32562      -617455.00000 
               0.32964      -607092.00000 
               0.33366      -596528.00000 
               0.33768      -586067.00000 
               0.34170      -575122.00000 
               0.34572      -564539.00000 
               0.34974      -553243.00000 
               0.35376      -542278.00000 
               0.35778      -530892.00000 
               0.36180      -519544.00000 
               0.36582      -508079.00000 
               0.36984      -496347.00000 
               0.37386      -484809.00000 
               0.37788      -472701.00000 
               0.38190      -460987.00000 
               0.38592      -448619.00000 
               0.38994      -436534.00000 
               0.39396      -424126.00000 
               0.39798      -411708.00000 
               0.40200      -399235.00000 
               0.40602      -386421.00000 
               0.41004      -373894.00000 
               0.41406      -361008.00000 
               0.41808      -348484.00000 
               0.42210      -334738.00000 
               0.42612      -321090.00000 
               0.43014      -309250.00000 
               0.43416      -298696.00000 
               0.43818      -291044.00000 
               0.44220      -289077.00000 
               0.44622      -286971.00000 
               0.45024      -283785.00000 
               0.45426      -280569.00000 
               0.45828      -277715.00000 
               0.46230      -274925.00000 
               0.46632      -272138.00000 
               0.47034      -269354.00000 
               0.47436      -266585.00000 
               0.47838      -263922.00000 
               0.48240      -261221.00000 
               0.48642      -258653.00000 
               0.49044      -256048.00000 
               0.49446      -253537.00000 
               0.49848      -251038.00000 
               0.50250      -248586.00000 
               0.50652      -246193.00000 
               0.51054      -243802.00000 
               0.51456      -241519.00000 
               0.51858      -239199.00000 
               0.52260      -237019.00000 
               0.52662      -234812.00000 
               0.53064      -232697.00000 
               0.53466      -230606.00000 
               0.53868      -228558.00000 
               0.54270      -226585.00000 
               0.54672      -224604.00000 
               0.55074      -222752.00000 
               0.55476      -220863.00000 
               0.55878      -219112.00000 
               0.56280      -217346.00000 
               0.56682      -215668.00000 
               0.57084      -214027.00000 
               0.57486      -212422.00000 
               0.57888      -210910.00000 
               0.58290      -209378.00000 
               0.58692      -207995.00000 
               0.59094      -206573.00000 
               0.59496      -205289.00000 
               0.59898      -204000.00000 
               0.60300      -202789.00000 
               0.60702      -201628.00000 
               0.61104      -200499.00000 
               0.61506      -199498.00000 
               0.61908      -198460.00000 
               0.62310      -197504.00000 
               0.62712      -196506.00000 
               0.63114      -195905.00000 
               0.63516      -195387.00000 
               0.63918      -194290.00000 
               0.64320      -192637.00000 
               0.64722      -192408.00000 
               0.65124      -196618.00000 
               0.65526      -200763.00000 
               0.65928      -212111.00000 
               0.66330      -223522.00000 
               0.66732      -234030.00000 
               0.67134      -244156.00000 
               0.67536      -254500.00000 
               0.67938      -265123.00000 
               0.68340      -275712.00000 
               0.68742      -286254.00000 
               0.69144      -296780.00000 
               0.69546      -307570.00000 
               0.69948      -318376.00000 
               0.70350      -328716.00000 
               0.70752      -338817.00000 
               0.71154      -350007.00000 
               0.71556      -362854.00000 
               0.71958      -374005.00000 
               0.72360      -374006.00000 
               0.72762      -374008.00000 
               0.73164      -362859.00000 
               0.73566      -350015.00000 
               0.73968      -338829.00000 
               0.74370      -328730.00000 
               0.74772      -318393.00000 
               0.75174      -307590.00000 
               0.75576      -296803.00000 
               0.75978      -286280.00000 
               0.76380      -275741.00000 
               0.76782      -265155.00000 
               0.77184      -254535.00000 
               0.77586      -244194.00000 
               0.77988      -234071.00000 
               0.78390      -223565.00000 
               0.78792      -212157.00000 
               0.79194      -200812.00000 
               0.79596      -196668.00000 
               0.79998      -192461.00000 
               0.80400      -192692.00000 
               0.80802      -194347.00000 
               0.81204      -195446.00000 
               0.81606      -195965.00000 
               0.82008      -196567.00000 
               0.82410      -197566.00000 
               0.82812      -198523.00000 
               0.83214      -199561.00000 
               0.83616      -200562.00000 
               0.84018      -201691.00000 
               0.84420      -202852.00000 
               0.84822      -204062.00000 
               0.85224      -205349.00000 
               0.85626      -206633.00000 
               0.86028      -208053.00000 
               0.86430      -209434.00000 
               0.86832      -210964.00000 
               0.87234      -212474.00000 
               0.87636      -214077.00000 
               0.88038      -215715.00000 
               0.88440      -217391.00000 
               0.88842      -219155.00000 
               0.89244      -220903.00000 
               0.89646      -222789.00000 
               0.90048      -224638.00000 
               0.90450      -226616.00000 
               0.90852      -228586.00000 
               0.91254      -230632.00000 
               0.91656      -232720.00000 
               0.92058      -234833.00000 
               0.92460      -237037.00000 
               0.92862      -239216.00000 
               0.93264      -241533.00000 
               0.93666      -243814.00000 
               0.94068      -246203.00000 
               0.94470      -248595.00000 
               0.94872      -251044.00000 
               0.95274      -253542.00000 
               0.95676      -256051.00000 
               0.96078      -258655.00000 
               0.96480      -261222.00000 
               0.96882      -263922.00000 
               0.97284      -266584.00000 
               0.97686      -269352.00000 
               0.98088      -272136.00000 
               0.98490      -274921.00000 
               0.98892      -277711.00000 
               0.99294      -280564.00000 
               0.99696      -283780.00000 
               1.00098      -286966.00000 
               1.00500      -289072.00000 
               1.00902      -291038.00000 
               1.01304      -298690.00000 
               1.01706      -309244.00000 
               1.02108      -321083.00000 
               1.02510      -334732.00000 
               1.02912      -348478.00000 
               1.03314      -361002.00000 
               1.03716      -373888.00000 
               1.04118      -386415.00000 
               1.04520      -399229.00000 
               1.04922      -411702.00000 
               1.05324      -424120.00000 
               1.05726      -436529.00000 
               1.06128      -448613.00000 
               1.06530      -460982.00000 
               1.06932      -472696.00000 
               1.07334      -484804.00000 
               1.07736      -496342.00000 
               1.08138      -508074.00000 
               1.08540      -519540.00000 
               1.08942      -530888.00000 
               1.09344      -542274.00000 
               1.09746      -553239.00000 
               1.10148      -564536.00000 
               1.10550      -575118.00000 
               1.10952      -586064.00000 
               1.11354      -596525.00000 
               1.11756      -607089.00000 
               1.12158      -617452.00000 
               1.12560      -627624.00000 
               1.12962      -637891.00000 
               1.13364      -647770.00000 
               1.13766      -657956.00000 
               1.14168      -667269.00000 
               1.14570      -676835.00000 
               1.14972      -686735.00000 
               1.15374      -696948.00000 
               1.15776      -703267.00000 
               1.16178      -704574.00000 
               1.16580      -705496.00000 
               1.16982      -704941.00000 
               1.17384      -704250.00000 
               1.17786      -704135.00000 
               1.18188      -703963.00000 
               1.18590      -703746.00000 
               1.18992      -703450.00000 
               1.19394      -703148.00000 
               1.19796      -702902.00000 
               1.20198      -702575.00000 
               1.20600      -702333.00000 
               1.21002      -701983.00000 
               1.21404      -701729.00000 
               1.21806      -701400.00000 
               1.22208      -701103.00000 
               1.22610      -700792.00000 
               1.23012      -700456.00000 
               1.23414      -700166.00000 
               1.23816      -699793.00000 
               1.24218      -699526.00000 
               1.24620      -699161.00000 
               1.25022      -698876.00000 
               1.25424      -698537.00000 
               1.25826      -698221.00000 
               1.26228      -697909.00000 
               1.26630      -697564.00000 
               1.27032      -697281.00000 
               1.27434      -696909.00000 
               1.27836      -696657.00000 
               1.28238      -696314.00000 
               1.28640      -696042.00000 
               1.29042      -695732.00000 
               1.29444      -695439.00000 
               1.29846      -695165.00000 
               1.30248      -694851.00000 
               1.30650      -694614.00000 
               1.31052      -694290.00000 
               1.31454      -694084.00000 
               1.31856      -693800.00000 
               1.32258      -693578.00000 
               1.32660      -693334.00000 
               1.33062      -693098.00000 
               1.33464      -692898.00000 
               1.33866      -692649.00000 
               1.34268      -692487.00000 
               1.34670      -692241.00000 
               1.35072      -692124.00000 
               1.35474      -691946.00000 
               1.35876      -691767.00000 
               1.36278      -691551.00000 
               1.36680      -691450.00000 
               1.37082      -691597.00000 
               1.37484      -690701.00000 
               1.37886      -682183.00000 
               1.38288      -673548.00000 
               1.38690      -664727.00000 
               1.39092      -655799.00000 
               1.39494      -646966.00000 
               1.39896      -638189.00000 
               1.40298      -629388.00000 
               1.40700      -620614.00000 
               1.41102      -611801.00000 
               1.41504      -603046.00000 
               1.41906      -594262.00000 
               1.42308      -585494.00000 
               1.42710      -576720.00000 
               1.43112      -567945.00000 
               1.43514      -559173.00000 
               1.43916      -550398.00000 
               1.44318      -541624.00000 
               1.44720      -532849.00000 
